X,C10: Sample 58,X,D7: Sample 79,X,E11: Sample 107,X,F4: Sample 124,X,G6: Sample 150
24.25,8.29731943361455,24.25,5.17183747048526,24.25,10.1980453073039,24.25,10.1147934235895,24.25,11.3985966686756
24.46,8.27661913473867,24.46,5.13788858904775,24.46,10.1914070353382,24.46,10.0928943221648,24.46,11.4064261824763
24.6,8.2001255266804,24.6,5.15317953136587,24.6,10.1914070353382,24.6,10.0316323856168,24.6,11.3759276474136
24.66,8.19745751772426,24.66,5.1209304853899,24.66,10.1576340044896,24.66,10.0283684739898,24.66,11.4027149652378
24.78,8.19879130514986,24.78,5.09118586424964,24.78,10.0678986046343,24.78,9.98406072471331,24.78,11.3588299128501
24.86,8.18083327806066,24.86,5.0895296554454,24.86,10.0646234261682,24.86,10.0420448624228,24.86,11.2789256505328
24.93,8.21141597597737,24.93,5.07424571172277,24.93,10.0646234261682,24.93,10.0420448624228,24.93,11.2941674769772
25,8.1515764709167,25,5.05978476487147,25,10.0662607489966,25,9.96712646974589,25,11.2807605172402
25.06,8.1043769960961,25.06,5.05896176800015,25.06,10.0493973358497,25.06,9.96550527155628,25.06,11.2789256505328
25.2,8.18083327806066,25.2,5.10481359916803,25.2,10.1255287130966,25.2,9.95019679799029,25.2,11.2941674769772
25.33,8.13495969401282,25.33,5.07424571172277,25.33,10.0037181392399,25.33,9.91958077651278,25.33,11.2179583447552
25.4,8.1170273398265,25.4,5.02675909318916,25.4,9.98524283347073,25.4,9.9010523267383,25.4,11.2295470979732
25.46,8.1043769960961,25.46,5.02839434338213,25.46,10.0037181392399,25.46,9.93488925007877,25.46,11.248441997644
25.54,8.10174142634127,25.54,4.99620114652032,25.54,9.97002169472634,25.54,9.91635489658546,25.54,11.1838364887145
25.72,8.07116867401738,25.72,5.01148011985474,25.72,9.98524283347073,25.72,9.87044626169055,25.72,11.1838364887145
25.85,8.11570771255617,25.85,5.01066537751693,25.85,9.92274389884725,25.85,9.88414165403298,25.85,11.1363150965134
25.98,8.02270099975305,25.98,5.00985090004984,25.98,9.92113096908476,25.98,9.83664128890656,25.98,11.2106644836728
25.98,8.03798194382557,25.98,4.9945768938719,25.98,9.89069858830519,25.98,9.82134276883444,25.98,11.2106644836728
26.12,8.0087209383227,26.12,5.02594186686935,26.12,9.90752523468241,26.12,9.82293947551121,26.12,11.182018274361
26.19,7.99343750994778,26.19,5.02594186686935,26.19,9.87708698114971,26.19,9.80763939348227,26.19,11.1515494891293
26.31,7.97555990002129,26.31,4.97849363970311,26.31,9.858662769019,26.31,9.74326918726183,26.31,11.1174658556271
26.44,7.99083928550119,26.44,4.94795059208189,26.44,9.87387648643781,26.44,9.7891554386195,26.44,11.0717784582572
26.56,7.96157537335775,26.56,4.9182073255085,26.56,9.87548147286279,26.56,9.76015053865118,26.56,11.088810078452
26.62,7.93101256016009,26.62,4.93348086916013,26.62,9.81461578625103,26.62,9.71425682854004,26.62,11.1040419947362
26.81,7.86988693376479,26.81,4.96402888151602,26.81,9.79939959586124,26.81,9.69895830846792,26.81,11.0735781621679
26.87,7.94629350423261,26.87,4.93348086916013,26.87,9.81461578625103,26.87,9.74485294363167,26.87,11.0431143295995
26.95,7.89916574732861,26.95,4.91740800691179,26.95,9.79780697444147,26.95,9.69738201100189,26.95,11.0717784582572
27.01,7.91315906762606,27.01,4.97768465471128,27.01,9.78100362535918,27.01,9.6652209789689,27.01,11.0699793392357
27.13,7.91315906762606,27.13,4.90133990583711,27.13,9.75058021010412,27.13,9.63463480736608,27.13,11.0547523732006
27.26,7.86860790127108,27.26,4.90213648310118,27.26,9.79780697444147,27.26,9.66679179336496,27.26,11.0108606952277
27.37,7.86732928445255,27.37,4.93187752796119,27.37,9.72015679484907,27.37,9.57346246416046,27.37,10.9938445090601
27.43,7.86732928445255,27.43,4.91660894808714,27.43,9.76579145535566,27.43,9.57346246416046,27.43,10.9633905769898
27.56,7.92843504551591,27.56,4.90133990583711,27.56,9.70494554959753,27.56,9.6652209789689,27.56,11.0852063052709
27.68,7.83805005521356,27.68,4.87159343547995,27.68,9.70652282012404,27.68,9.63620065082576,27.68,11.0870078990146
27.82,7.8520533065627,27.82,4.90133990583711,27.82,9.73536896485258,27.82,9.60404863576327,27.82,10.9938445090601
27.87,7.83677640392087,27.87,4.88607086358707,27.87,9.75058021010412,27.87,9.57346246416046,27.87,10.9938445090601
27.99,7.78968175385913,27.99,4.85474390292469,27.99,9.67295124381271,27.99,9.54132586586511,27.99,11.0529563127013
28.12,7.77440825785033,28.12,4.85474390292469,28.12,9.71857756547541,28.12,9.52603480242341,28.12,11.0529563127013
28.18,7.81895932777694,28.18,4.85395528305742,28.18,9.67137993919221,28.18,9.52448736337168,28.18,11.0207167977122
28.29,7.77440825785033,28.29,4.83947734142888,28.29,9.64253277143585,28.29,9.52603480242341,28.29,11.0225073284673
28.41,7.75787341913758,28.41,4.83869120150987,28.41,9.65617271141417,28.41,9.46333489422168,28.41,10.9902727597069
28.53,7.7591338372398,28.53,4.85474390292469,28.53,9.67295124381271,28.53,9.48016346130176,28.53,11.0225073284673
28.64,7.72733092704367,28.64,4.86921936460496,28.64,9.65617271141417,28.64,9.49391112879668,28.64,10.9293846836964
28.72,7.743860341231,28.72,4.82421124223394,28.72,9.62732399754828,28.72,9.48016346130176,28.72,10.9159358836482
28.83,7.71205944988383,28.83,4.83869120150987,28.83,9.62576010476116,28.83,9.41747100458495,28.83,11.0207167977122
28.89,7.72858638292134,28.89,4.82421124223394,28.89,9.61211429905898,28.89,9.46487239786006,28.89,10.9768338521163
29.02,7.71205944988383,29.02,4.80816350064054,29.02,9.59534657365661,29.02,9.40218242507168,29.02,10.944606702699
29.12,7.72733092704367,29.12,4.82342758218809,29.12,9.54972673922555,29.12,9.46333489422168,29.12,10.9293846836964
29.23,7.68151695778991,29.23,4.82342758218809,29.23,9.53452043589905,29.23,9.34102995592168,29.23,10.9902727597069
29.3,7.63570252631039,29.3,4.7623712559979,29.3,9.54972673922555,29.3,9.41747100458495,29.3,10.8837186266885
29.41,7.60515957199071,29.41,4.77763533754545,29.41,9.5041069047945,29.41,9.35631853543495,29.41,10.8989406456912
29.53,7.63446236023498,29.53,4.80738257429644,29.53,9.47215561139499,29.53,9.33951281608801,29.53,10.8819509283571
29.65,7.619193363419,29.65,4.77685936948673,29.65,9.47215561139499,29.65,9.308941547606,29.65,10.8210727415907
29.76,7.58742304510861,29.76,4.79134277751486,29.76,9.394608753024,29.76,9.35327978306878,29.76,10.8040984282224
29.83,7.55811783830579,29.83,4.76159776708187,29.83,9.41133935282174,29.83,9.29365637551569,29.83,10.7906336482075
29.93,7.60392436660302,29.93,4.73107456227216,29.93,9.4265431863897,29.93,9.308941547606,29.93,10.8210727415907
30.05,7.52635743807352,30.05,4.76082452938017,30.05,9.40981104178685,30.05,9.30742986499028,30.05,10.7432301274883
30.16,7.57215698990658,30.16,4.74556540531282,30.16,9.37940738841244,30.16,9.26158087106307,30.16,10.7432301274883
30.28,7.54284884148981,30.28,4.70055181961314,30.28,9.38093076138441,30.28,9.21722866646137,30.28,10.7145359147495
30.33,7.55689047262889,30.33,4.6845293711191,30.33,9.36420602380088,30.33,9.23101456706117,30.33,10.7432301274883
30.45,7.52635743807352,30.45,4.66927024705175,30.45,9.31860100581492,30.45,9.24629725698648,30.45,10.7127959771212
30.56,7.49582440351816,30.56,4.6845293711191,30.56,9.30339964120336,30.56,9.21573187713587,30.56,10.6367115253549
30.67,7.52635743807352,30.67,4.66927024705175,30.67,9.33380237042648,30.67,9.20044826305927,30.67,10.6519286005384
30.77,7.50987138987835,30.77,4.66851212556335,30.77,9.33228689675049,30.77,9.13783175902445,30.77,10.6958429240227
30.9,7.48055834831612,30.9,4.69978849518644,30.9,9.22739096984299,30.9,9.18516557313397,30.9,10.6367115253549
30.95,7.44881569770071,30.95,4.66851212556335,30.95,9.19549498063601,30.95,9.15311289159202,30.95,10.5741260881985
31.06,7.46407973624528,31.06,4.66851212556335,31.06,9.2562914904648,31.06,9.13783175902445,31.06,10.6197699016326
31.17,7.45002531376075,31.17,4.69978849518644,31.17,9.22739096984299,31.17,9.09346666112826,31.17,10.5910602998043
31.28,7.47934377478984,31.28,4.68376877209797,31.28,9.2106938770929,31.28,9.15311289159202,31.28,10.6349845061106
31.4,7.47812959560563,31.4,4.65250008041201,31.4,9.13321464136006,31.4,9.04467920514618,31.4,10.5876216438628
31.45,7.43355165915615,31.45,4.65325547902874,31.45,9.19549498063601,31.45,9.09199020932422,31.45,10.5893406926765
31.6,7.4170833531407,31.6,4.6677542502183,31.6,9.08762535404936,31.6,9.09051423688764,31.6,10.5115609709892
31.71,7.38776000552307,31.71,4.60748600142551,31.71,9.11949865034908,31.71,9.04614773562274,31.71,10.5284822747644
31.82,7.37129913321763,31.82,4.60673803291879,31.82,9.10282178315293,31.82,8.99884509725596,31.82,10.4811367018398
31.93,7.38656069383387,31.93,4.62199220272507,31.93,9.10282178315293,31.93,8.9530100655145,31.93,10.5267731055639
32.04,7.34077601198518,32.04,4.62199220272507,32.04,9.07242800109455,32.04,8.96828871737874,32.04,10.4963488364145
32.16,7.35603757260141,32.16,4.63724591060573,32.16,9.01164136082904,32.16,8.99884509725596,32.16,10.4659245672651
32.26,7.38656069383387,32.26,4.62199220272507,32.26,9.04203514288742,32.26,8.98356644539173,32.26,10.4507124326904
32.32,7.32551445136894,32.32,4.63724591060573,32.32,9.04203514288742,32.32,8.99884509725596,32.32,10.4963488364145
32.42,7.34196788988938,32.42,4.59222935489089,32.42,9.07390103697718,32.42,8.9391835036547,32.42,10.3915508344621
32.52,7.31025289075271,32.52,4.5914838631125,32.52,8.95085472056353,32.52,8.92245368563728,32.52,10.420288163541
32.63,7.26446867082964,32.63,4.57622969330622,32.63,8.95085472056353,32.63,8.89189730576006,32.63,10.3442274906675
32.73,7.27854864887301,32.73,4.59073861333761,32.73,8.94940189558048,32.73,8.95155689069459,32.73,10.3729678364668
32.84,7.27854864887301,32.84,4.57548691945566,32.84,8.94940189558048,32.84,8.85990263000134,32.84,10.38817750194
32.94,7.24803048188843,32.94,4.57548691945566,32.94,8.93420793302927,32.94,8.87517880196752,32.94,10.3577581709936
33.06,7.2315976282893,33.06,4.52899673040347,33.06,8.87199021104092,33.06,8.79737187655807,33.06,10.3104556709755
33.16,7.26328956538072,33.16,4.56023522557371,33.16,8.88862512167437,33.16,8.82935120977025,33.16,10.3577581709936
33.27,7.24803048188843,33.27,4.54498353169176,33.27,8.88862512167437,33.27,8.81407596150536,33.27,10.3273388400473
33.36,7.21751231490386,33.36,4.56023522557371,33.36,8.88862512167437,33.36,8.76824836930808,33.36,10.2817107673291
33.42,7.2315976282893,33.42,4.55949516792594,33.42,8.87199021104092,33.42,8.82791833875276,33.42,10.2648350030079
33.57,7.15531505420328,33.57,4.52899673040347,33.57,8.8416072174421,33.57,8.82791833875276,33.57,10.2344206086618
33.67,7.18582826854796,33.67,4.54424594916471,33.67,8.8416072174421,33.67,8.78209910723642,33.67,10.3104556709755
33.78,7.18582826854796,33.78,4.54424594916471,33.78,8.75045638954285,33.78,8.81264556943111,33.78,10.2800422001809
33.88,7.20108441394461,33.88,4.52899673040347,33.88,8.76564788634226,33.88,8.76682541436337,33.88,10.1887990171427
33.98,7.15531505420328,33.98,4.55949516792594,33.98,8.75045638954285,33.98,8.78209910723642,33.98,10.1887990171427
34.09,7.18582826854796,34.09,4.55949516792594,34.09,8.73526489274344,34.09,8.78209910723642,34.09,10.1583846227967
34.18,7.14005844703093,34.18,4.54424594916471,34.18,8.75045638954285,34.18,8.73627987572007,34.18,10.2040062143157
34.28,7.12480183985859,34.28,4.54424594916471,34.28,8.6441140648442,34.28,8.70573341352537,34.28,10.1735918199697
34.39,7.12364577919984,34.39,4.51301557880924,34.39,8.76422558423512,34.39,8.76540292119213,34.39,10.1415316074465
34.49,7.12364577919984,34.49,4.49776883436551,34.49,8.6730904697468,34.49,8.68904961847472,34.49,10.1567363371204
34.64,7.12480183985859,34.64,4.51374797341794,34.64,8.6441140648442,34.64,8.67518695133068,34.64,10.1127630312776
34.7,7.07788384593258,34.7,4.48252208992178,34.7,8.6730904697468,34.7,8.62796660694017,34.7,10.0959174184248
34.85,7.03212145096456,34.85,4.49776883436551,34.85,8.65790051449747,34.85,8.64323782152457,34.85,10.0655079590771
34.94,7.06262971427658,34.94,4.49776883436551,34.94,8.59714346370475,34.94,8.6126963157573,34.94,10.1263268777726
35.04,7.04737558262057,35.04,4.48252208992178,35.04,8.61233341895408,35.04,8.62796660694017,35.04,10.1111221480987
35.14,7.03212145096456,35.14,4.48252208992178,35.14,8.64271148264967,35.14,8.6126963157573,35.14,10.080712688751
35.23,7.03098061361041,35.23,4.51228342183669,35.23,8.61093622015152,35.23,8.58076250713312,35.23,10.0182682194762
35.34,7.01686731930855,35.34,4.48252208992178,35.34,8.58195443185695,35.34,8.56688359540562,35.34,10.0350984997293
35.43,7.02984014635759,35.43,4.51155150238465,35.43,8.57917034282796,35.43,8.59463599327308,35.43,10.0470427903993
35.53,7.03098061361041,35.53,4.45130633812046,35.53,8.58056216150785,35.53,8.59603032098127,35.53,10.048672745427
35.63,6.95472279052182,35.63,4.45130633812046,35.63,8.51981496747223,35.63,8.56549377003323,35.63,10.0182682194762
35.73,7.014590963325,35.73,4.43534251130054,35.73,8.50324797490628,35.73,8.59463599327308,35.73,10.0318429933222
35.81,6.95472279052182,35.81,4.46655060904952,35.81,8.44388028248891,35.81,8.55022595618508,35.81,10.0182682194762
35.97,6.95472279052182,35.97,4.48179487997858,35.97,8.47425434113259,35.97,8.47388411718912,35.97,9.94225690459936
36.11,7.01572895666752,36.11,4.45130633812046,36.11,8.51981496747223,36.11,8.51968940523704,36.11,9.94225690459936
36.16,7.00047729972463,36.16,4.46655060904952,36.16,8.51981496747223,36.16,8.56549377003323,36.16,9.94225690459936
36.31,6.96997444746471,36.31,4.42081825788822,36.31,8.51981496747223,36.31,8.50442066813716,36.31,9.91185237864862
36.36,6.95472279052182,36.36,4.46655060904952,36.36,8.45906777343661,36.36,8.489152854289,36.36,9.88144877594961
36.51,6.89371662437612,36.51,4.45130633812046,36.51,8.48944090882856,36.51,8.47388411718912,36.51,9.89665011567325
36.65,6.90784714364778,36.65,4.42010117463471,36.65,8.42732653008657,36.65,8.45724426501114,36.65,9.89504481962853
36.69,6.92309632668038,36.69,4.42010117463471,36.69,8.47287976621918,36.69,8.45724426501114,36.69,9.91024461670561
36.79,6.8914805826556,36.79,4.48034116772428,36.79,8.38041394051672,36.79,8.39481937945285,36.79,9.83265163931444
36.88,6.86098716280611,36.88,4.44986251511102,36.88,8.42595978883939,36.88,8.42534602558385,36.88,9.81745430733581
37.02,6.90672683110421,37.02,4.44986251511102,37.02,8.39559558230686,37.02,8.41008224104222,37.02,9.84784897129306
37.12,6.83049374295662,37.12,4.49558049403092,37.12,8.36523229872659,37.12,8.41008224104222,37.12,9.83265163931444
37.25,6.84574045288136,37.25,4.41938432397388,37.25,8.36523229872659,37.25,8.45587267171484,37.25,9.84784897129306
37.35,6.84574045288136,37.35,4.41938432397388,37.35,8.38041394051672,37.35,8.41008224104222,37.35,9.78705964337857
37.4,6.78475407465852,37.4,4.41938432397388,37.4,8.31968645040392,37.4,8.37955559491123,37.4,9.80225697535719
37.53,6.84463039281117,37.53,4.38819399539639,37.53,8.31833738498307,37.53,8.37819682150521,37.53,9.80066750608926
37.67,6.84463039281117,37.67,4.4186677057926,37.67,8.34869666785636,37.67,8.39345813097232,37.67,9.81586237376887
37.76,6.80000032310713,37.76,4.46510184141765,37.76,8.31968645040392,37.76,8.36429273332186,37.76,9.75666497942132
37.82,6.8141419175733,37.82,4.4034308505945,37.82,8.28797810210977,37.82,8.34767512537359,37.82,9.75508290305041
37.96,6.85876245879742,37.96,4.43318524354213,37.96,8.28663439619179,37.96,8.28528824547528,37.96,9.75350133967443
38.05,6.8141419175733,38.05,4.4339040995894,38.05,8.34869666785636,38.05,8.33241473870908,38.05,9.66391369697272
38.19,6.84463039281117,38.19,4.4186677057926,38.19,8.28797810210977,38.19,8.31715342924196,38.19,9.72469316769118
38.24,6.76950736473377,38.24,4.43462318880438,38.24,8.24377731850098,38.24,8.30323944105987,38.24,9.68067831952821
38.33,6.84574045288136,38.33,4.41938432397388,38.33,8.25895896029111,38.33,8.31850230264924,38.33,9.71107298348546
38.5,6.78365390373673,38.5,4.4339040995894,38.5,8.1969020990951,38.5,8.33241473870908,38.5,9.72469316769118
38.59,6.78365390373673,38.59,4.4034308505945,38.59,8.27279892207443,38.59,8.37819682150521,38.59,9.66391369697272
38.64,6.79889767995436,38.64,4.46437780998561,38.64,8.24244056200374,38.64,8.33241473870908,38.64,9.70949830001157
38.77,6.75316542849886,38.77,4.4186677057926,38.77,8.27279892207443,38.77,8.28663173311034,38.77,9.67910856465234
38.87,6.76840966611779,38.87,4.4034308505945,38.87,8.1969020990951,38.87,8.25611095978133,38.87,9.64871882929311
39,6.73573674568917,39,4.46293045131808,39,8.25494260806533,39,8.22292251401001,39,9.63040075721679
39.09,6.75207055732044,39.09,4.43318524354213,39.09,8.22592659722364,39.09,8.23951358519581,39.09,9.61676970205743
39.18,6.70743271564205,39.18,4.4186677057926,39.18,8.21208127913044,39.18,8.27137134644584,39.18,9.61832909393388
39.26,6.70634525897609,39.26,4.43318524354213,39.26,8.18039551733428,39.26,8.23951358519581,39.26,9.58638489369809
39.4,6.6911039541878,39.4,4.43318524354213,39.4,8.16521879825549,39.4,8.1784800897212,39.4,9.55600008533876
39.5,6.72158702509087,39.5,4.41795131997778,39.5,8.21074987814485,39.5,8.16322217717904,39.5,9.60157729787776
39.63,6.6911039541878,39.63,4.41795131997778,39.63,8.18039551733428,39.63,8.23951358519581,39.63,9.60157729787776
39.72,6.6911039541878,39.72,4.44841962843297,39.72,8.19557315906606,39.72,8.2089968374585,39.72,9.58638489369809
39.8,6.72049745027727,39.8,4.41723516641643,39.8,8.22459316772174,39.8,8.22292251401001,39.8,9.53926110834645
39.9,6.72049745027727,39.9,4.40200325103198,39.9,8.16389520953799,39.9,8.17715435133739,39.9,9.58483093278162
39.98,6.72158702509087,39.98,4.3874825501961,39.98,8.1500420791767,39.98,8.19373892491635,39.98,9.58638489369809
40.1,6.75097604110106,40.1,4.43246662054917,40.1,8.19424464988158,40.1,8.17715435133739,40.1,9.58483093278162
40.2,6.70417140313849,40.2,4.44697767717578,40.2,8.14740025030176,40.2,8.22158978750855,40.2,9.53771503685401
40.32,6.71831936003249,40.32,4.44625705204578,40.32,8.14607997802008,40.32,8.15925366858537,40.32,9.55135448490835
40.45,6.6747800252933,40.45,4.46293045131808,40.45,8.13354669169783,40.45,8.17715435133739,40.45,9.55445104982484
40.55,6.64322456227592,40.55,4.44697767717578,40.55,8.19291657133217,40.55,8.14532218692976,40.55,9.47696511855244
40.63,6.62798773676604,40.63,4.52312444939161,40.63,8.11705572883019,40.63,8.17582904269049,40.63,9.50734007770323
40.76,6.6584613877858,40.76,4.40128979831706,40.76,8.16257204986059,40.76,8.19108293174782,40.76,9.52252755727862
40.85,6.62906213905762,40.85,4.47816236670253,40.85,8.10319725135424,40.85,8.16189891211547,40.85,9.4785013424329
40.97,6.62906213905762,40.97,4.43246662054917,40.97,8.11837151027432,40.97,8.19241071306274,40.97,9.4785013424329
41.05,6.65954072988141,41.05,4.47816236670253,41.05,8.17906946845807,41.05,8.14664255039012,41.05,9.4785013424329
41.13,6.64322456227592,41.13,4.50789546389001,41.13,8.11705572883019,41.13,8.14532218692976,41.13,9.52252755727862
41.27,6.64107186475088,41.27,4.50643470709678,41.27,8.11442544505546,41.27,8.15793168970193,41.27,9.41316485360846
41.35,6.64214803909292,41.35,4.4767110095913,41.35,8.13091063702543,41.35,8.11350033921778,41.35,9.46024529629104
41.44,6.62691368268456,41.44,4.4767110095913,41.44,8.11574037382633,41.44,8.18975558076228,41.44,9.50579942949747
41.53,6.67261675190964,41.53,4.50716496713682,41.53,8.13091063702543,41.53,8.11350033921778,41.53,9.46024529629104
41.65,6.62583997664395,41.65,4.47598568376344,41.65,8.11442544505546,41.65,8.11218577338188,41.65,9.45871252809657
41.77,6.62691368268456,41.77,4.56807242112564,41.77,8.17641866000937,41.77,8.12875175640846,41.77,9.46024529629104
41.86,6.64214803909292,41.86,4.53761846358012,41.86,8.19158892320847,41.86,8.12875175640846,41.86,9.46024529629104
41.98,6.61167932627621,41.98,4.52239148480736,41.98,8.14607997802008,41.98,8.12875175640846,41.98,9.41469024088015
42.06,6.62583997664395,42.06,4.52165875773594,42.06,8.09925856182831,42.06,8.1274347195069,42.06,9.41316485360846
42.19,6.61167932627621,42.19,4.55284544235288,42.19,8.14607997802008,42.19,8.11350033921778,42.19,9.39950522240986
42.32,6.67261675190964,42.32,4.4767110095913,42.32,8.17641866000937,42.32,8.14400225139469,42.32,9.44506027782075
42.4,6.67261675190964,42.4,4.53761846358012,42.4,8.14607997802008,42.4,8.09824984423155,42.4,9.39950522240986
42.49,6.65630375285781,42.49,4.53688326940261,42.49,8.17509390001909,42.49,8.1426827435769,42.49,9.42834741177117
42.6,6.64107186475088,42.6,4.61300582773597,42.6,8.17509390001909,42.6,8.09693774931188,42.6,9.35243462095766
42.68,6.64107186475088,42.68,4.55210778106928,42.68,8.19026170530127,42.68,8.09693774931188,42.68,9.39798229544577
42.77,6.59537620043009,42.77,4.55210778106928,42.77,8.19026170530127,42.77,8.1274347195069,42.77,9.39798229544577
42.89,6.65738239550128,42.89,4.59852637867116,42.89,8.17641866000937,42.89,8.15925366858537,42.89,9.41469024088015
43.01,6.65738239550128,43.01,4.65943383265997,43.01,8.19158892320847,43.01,8.11350033921778,43.01,9.42987525935045
43.14,6.61060808853702,43.14,4.5977813160693,43.14,8.26609704349206,43.14,8.1274347195069,43.14,9.38279973728306
43.22,6.62583997664395,43.22,4.6434543900418,43.22,8.23576327703776,43.22,8.1274347195069,43.22,9.41316485360846
43.35,6.63999603908026,43.35,4.64270216998834,43.35,8.2192637699134,43.35,8.17185569308284,43.35,9.36609966459272
43.43,6.61060808853702,43.43,4.70435243670849,43.43,8.25093016026491,43.43,8.18842865989696,43.43,9.41316485360846
43.51,6.63999603908026,43.51,4.64270216998834,43.51,8.26475797058691,43.51,8.17185569308284,43.51,9.36609966459272
43.63,6.59430777726462,43.63,4.67314626070815,43.63,8.27992239684286,43.63,8.14136366326853,43.63,9.3509195659405
43.71,6.64107186475088,43.71,4.62822987837513,43.71,8.32676549845569,43.71,8.1274347195069,43.71,9.36761717912036
43.83,6.67045488029068,43.83,4.73403398119494,43.83,8.32541659751637,43.83,8.12611810931421,43.83,9.38127976324495
43.95,6.62476661847504,43.95,4.70359035142796,43.95,8.32541659751637,43.95,8.17185569308284,43.95,9.39645986189717
44.03,6.62369360800882,44.03,4.68760893316458,44.03,8.30890616345814,44.03,8.155289016657,44.03,9.33422736177041
44.12,6.59430777726462,44.12,4.71881193583504,44.12,8.32541659751637,44.12,8.21759419875713,44.12,9.39645986189717
44.26,6.63892056191163,44.26,4.73326721184263,44.26,8.3392310253758,44.26,8.20101919232978,44.26,9.4252932014013
44.35,6.65522545968547,44.35,4.76447807191475,44.35,8.32541659751637,44.35,8.18710216894282,44.35,9.36609966459272
44.47,6.63892056191163,44.47,4.79414553125092,44.47,8.35439299545645,44.47,8.18577610769097,44.47,9.37976028158586
44.59,6.65306992107505,44.59,4.77815203626502,44.59,8.41367903773015,44.59,8.18445047593264,44.59,9.37824129206657
44.67,6.67045488029068,44.67,4.76447807191475,44.67,8.43156942511933,44.67,8.12611810931421,44.67,9.3509195659405
44.79,6.68460142362008,44.79,4.83980380992897,44.79,8.39987982745476,44.79,8.155289016657,44.79,9.34940500170889
44.87,6.66937446971726,44.87,4.8245842300769,44.87,8.41504179753542,44.87,8.23150628336374,44.87,9.39493792152434
44.94,6.66829440907439,44.94,4.82380292088984,44.94,8.42883855243104,44.94,8.26065539976218,44.94,9.40859165610874
45.07,6.71505487054754,45.07,4.90068212933726,45.07,8.5211774316127,45.07,8.30772355007049,45.07,9.37976028158586
45.13,6.69765828325203,45.13,4.86866581841238,45.13,8.50326092284631,45.13,8.27455600681533,45.13,9.36155006954839
45.25,6.68460142362008,45.25,4.94634040801531,45.25,8.53633940169336,45.25,8.29248046543168,45.25,9.37976028158586
45.37,6.65306992107505,45.37,4.97597361151416,45.37,8.48947753284165,45.37,8.26065539976218,45.37,9.37824129206657
45.49,6.68243672108652,45.49,4.95995326507339,45.49,8.56389008476917,45.49,8.27455600681533,45.49,9.36155006954839
45.61,6.7139674122689,45.61,5.02162449613898,45.61,8.68655491038145,45.61,8.29113755361541,45.61,9.37824129206657
45.72,6.74550877835317,45.72,4.96155998786739,45.72,8.62731306568998,45.72,8.27723645903652,45.72,9.39493792152434
45.81,6.68460142362008,45.81,5.02243784639751,45.81,8.68796186776895,45.81,8.27723645903652,45.81,9.37976028158586
45.93,6.69982791664472,45.93,5.06809658595373,45.93,8.70312475960595,45.93,8.33821064110445,45.93,9.37976028158586
46,6.69874292426956,46,5.03684161128177,46,8.7168748613903,46,8.29113755361541,46,9.40859165610874
46.11,6.69874292426956,46.11,5.09771007185291,46.11,8.67139539568057,46.11,8.33686032359173,46.11,9.42376683812982
46.23,6.72919190026825,46.23,5.1129271869957,46.23,8.74719389079207,46.23,8.33686032359173,46.23,9.40859165610874
46.31,6.7444163882676,46.31,5.14336095647773,46.31,8.7926733565018,46.31,8.35210186132188,46.31,9.469291462586
46.42,6.77376839772416,46.42,5.1425281583954,46.42,8.86703681584129,46.42,8.38122673149389,46.42,9.4374136940466
46.5,6.7748653642663,46.5,5.18901230190609,46.5,8.89879180262214,46.5,8.38258401517511,46.5,9.48446664460708
46.61,6.80421198278409,46.61,5.23381560505641,46.61,8.88219387595754,46.61,8.36598766162931,46.61,9.54362184688625
46.73,6.81943400567852,46.73,5.20338676332202,46.73,8.95798009799665,46.73,8.39646487990063,46.73,9.46775822238804
46.84,6.80311044288077,46.84,5.26339267424992,46.84,8.9565298826659,46.84,8.42557785305326,46.84,9.49656601577285
46.95,6.83465602857294,46.95,5.26424490751972,46.95,9.01861018137734,46.95,8.44218116803655,46.95,9.51327639708696
47.07,6.8651000743618,47.07,5.34031770294907,47.07,9.04892430160985,47.07,8.42694209817196,47.07,9.49810367218732
47.18,6.80311044288077,47.18,5.33945315418706,47.18,9.10807870985559,47.18,8.44081445585134,47.18,9.48139574719908
47.25,6.81833000146843,47.25,5.36987753042365,47.25,9.09292410352922,47.25,8.45605013734074,47.25,9.51173628434662
47.37,6.8651000743618,47.37,5.40117630787569,47.37,9.13986850522305,47.37,8.56409004112185,47.37,9.46775822238804
47.48,6.87920823581907,47.48,5.44593801036078,47.48,9.24447293071891,47.48,8.59317587728869,47.48,9.51173628434662
47.55,6.86398867723142,47.55,5.49157457471566,47.55,9.28993767100668,47.55,8.57793927449062,47.55,9.55724709006794
47.64,6.90964689234006,47.64,5.46115019847908,47.64,9.30509227733305,47.64,8.59317587728869,47.64,9.48139574719908
47.77,6.9237455596278,47.77,5.53631439957542,47.77,9.40965302717374,47.77,8.62225229751634,47.77,9.57086792235834
47.88,6.92486645092772,47.88,5.53721067841621,47.88,9.3960217579086,47.88,8.62364816157616,47.88,9.58758762721548
48,6.9705251266907,48,5.59805943088938,48,9.51726045113688,48,8.62364816157616,48,9.55724709006794
48.11,6.93896265470646,48.11,5.61236256800722,48.11,9.51571994280876,48.11,8.69842021668879,48.11,9.6163713614876
48.22,7.00096378321169,48.22,5.61327115835334,48.22,9.59303532538606,48.22,8.66935612735303,48.22,9.66343897008434
48.33,6.98461347936268,48.33,5.70362092282111,48.33,9.62178685844377,48.33,8.71365435321901,48.33,9.63153917453069
48.41,7.06184201756233,48.41,5.75018039076365,48.41,9.75973875890211,48.41,8.82171754879038,48.41,9.64826870151057
48.51,7.06069895475599,48.51,5.77966909125291,48.51,9.74300684856918,48.51,8.80505548776215,48.51,9.64670698757377
48.63,7.01504766952,48.63,5.7644593654506,48.63,9.80361638305211,48.63,8.77458813586125,48.63,9.66187480061686
48.74,7.04548185967733,48.74,5.8405075338824,48.74,9.84907376420419,48.74,8.80505548776215,48.74,9.69221042670303
48.78,7.09113268433354,48.78,5.9165557023142,48.78,9.86422591753504,48.78,8.83552283966303,48.78,9.67704261365995
48.93,7.10634977941221,48.93,5.9165557023142,48.93,9.9854449865009,48.93,8.89645754346482,48.93,9.75288167887538
49.03,7.1520010646482,49.03,5.99260433132578,49.03,10.0005980609913,49.03,8.9573922472666,49.03,9.75288167887538
49.15,7.1508435956298,49.15,6.02204856537987,49.15,10.0898787071364,49.15,8.89501775425241,49.15,9.81196472050701
49.22,7.18127239985866,49.22,6.05246309394653,49.22,10.1353287315348,49.22,8.94071184642386,49.22,9.85746079542861
49.33,7.19532255212341,49.33,6.0666885345473,49.33,10.2397213004768,49.33,8.90880763738015,49.33,9.8103770239503
49.43,7.14968650119686,49.43,6.11230248479945,49.43,10.2548685501981,49.43,8.96972262121306,49.43,9.84070283268175
49.57,7.21170166459276,49.57,6.15891348342462,49.57,10.3171288291283,49.57,9.04732985980647,49.57,9.85746079542861
49.65,7.21170166459276,49.65,6.20453481576938,49.65,10.377728554656,49.65,9.07779228091728,49.65,9.90295594933975
49.76,7.27255973355571,49.76,6.25015660861937,49.76,10.4989280057113,49.76,9.09302395197792,49.76,9.93328666595414
49.86,7.28777436592276,49.86,6.2653638729027,49.86,10.5443780301097,49.86,9.18441121531036,49.86,9.90295594933975
49.94,7.31701945531208,49.94,6.34037361735234,49.94,10.6184089895407,49.94,9.10678087440641,49.94,9.99233095547757
50.08,7.34863289539094,50.08,6.40222833044221,50.08,10.6958778044341,50.08,9.19964196536053,50.08,9.94845202426134
50.18,7.36265596666935,50.18,6.46201158540926,50.18,10.7547369996172,50.18,9.24383912759975,50.18,10.0529825729405
50.29,7.3790616996198,50.29,6.44785012329221,50.29,10.8322269566188,50.29,9.27579755763233,50.29,10.0242788157973
50.4,7.3790616996198,50.4,6.53909324848696,50.4,10.9079773042862,50.4,9.24533513652151,50.4,10.0546095324117
50.51,7.39307984714349,50.51,6.53803514278332,50.51,10.9516549294405,50.51,9.33521160334912,50.51,10.0378196685748
50.61,7.47034903331685,50.61,6.63033637368171,50.61,11.07462677974,50.61,9.35195407091459,50.61,10.0849402490261
50.72,7.52998892078458,50.72,6.72049186465335,50.72,11.0728347689342,50.72,9.42658407909849,50.72,10.1136341904034
50.83,7.51477675033216,50.83,6.70528706109239,50.83,11.2243100287321,50.83,9.42658407909849,50.83,10.2046116165977
50.9,7.59083714216356,50.9,6.76610627533621,50.9,11.2697526987576,50.9,9.44181328548744,50.9,10.2197745209635
51,7.55918963141544,51,6.82582052744585,51,11.3739448443803,51,9.42505898864725,51,10.1878002008726
51.1,7.60358860432979,51.1,6.85511615207961,51.1,11.402390614784,51.1,9.5148773065286,51.1,10.2316262194329
51.22,7.63523817808748,51.22,6.87142755835025,51.22,11.4648154804449,51.22,9.47073829547906,51.22,10.2939224386882
51.32,7.61879585334241,51.32,6.9007153453113,51.32,11.5992439171755,51.32,9.57577258315225,51.32,10.2619412965984
51.43,7.72649551338148,51.43,7.008247730351,51.43,11.5708309156161,51.43,9.60777437454957,51.43,10.3545642435613
51.53,7.67962438911111,51.53,6.99191465233819,51.53,11.7355278224283,51.53,9.65189121865006,51.53,10.3832052875142
51.64,7.75817009627879,51.64,7.03979135814125,51.64,11.7999156476193,51.64,9.71592979187412,51.64,10.386565548125
51.75,7.7569149320503,51.75,7.084259448525,51.75,11.858586702204,51.75,9.69913206750073,51.75,10.3848851459978
51.86,7.83423048811019,51.86,7.20704327645032,51.86,11.9816863277213,51.86,9.71592979187412,51.86,10.4168913568565
51.91,7.83423048811019,51.91,7.20704327645032,51.91,12.0422762474681,51.91,9.74638728379058,51.91,10.4320542612222
52.02,7.86338243703494,52.02,7.22107962052576,52.02,12.100908091472,52.02,9.77526301793714,52.02,10.4758478533075
52.13,7.90901110468193,52.13,7.28188899506496,52.13,12.1766330077176,52.13,9.80571558225419,52.13,10.5213292069623
52.26,7.93943052335075,52.26,7.32749556561313,52.26,12.2220683257498,52.26,9.83616814657125,52.26,10.5516501093989
52.37,7.93943052335075,52.37,7.38830494015233,52.37,12.3129389618144,52.37,9.83616814657125,52.37,10.5971314630537
52.48,8.01547860966657,52.48,7.37310259651753,52.48,12.4189543969856,52.48,9.89707327520535,52.48,10.5819710118355
52.58,7.99897523753072,52.58,7.44790888606382,52.58,12.4472311266981,52.58,9.91069660458233,52.58,10.6560492670747
52.68,8.03198824356098,52.68,7.48072881968608,52.68,12.5572919466085,52.68,9.92913223528932,52.68,10.6594978267081
52.77,8.04589802833539,52.77,7.49472042488349,52.77,12.5855499492957,52.77,10.0188835324736,52.77,10.7335746033058
52.88,8.06110819802602,52.88,7.54032745578789,52.88,12.6461300664346,52.88,9.97320514635421,52.88,10.7032537008693
53.02,8.15104680709334,53.02,7.56950750181791,53.02,12.7803683343424,53.02,10.017262878392,53.02,10.7166803419691
53.08,8.2118758031438,53.08,7.55430761731343,53.08,12.8863666204623,53.08,10.0477105167038,53.08,10.8227863340204
53.19,8.22708259187465,53.19,7.63030657955408,53.19,12.9772225572975,53.19,10.017262878392,53.19,10.777312337427
53.29,8.24229030116903,53.29,7.64550646405856,53.29,13.0075072558669,53.29,10.0629347961415,53.29,10.777312337427
53.39,8.28791158792511,53.39,7.63030657955408,53.39,13.128648811835,53.39,10.0933824344533,53.39,10.807628335156
53.5,8.33353287468119,53.5,7.70630554179473,53.5,13.1740758596891,53.5,10.1238291522016,53.5,10.8834183294783
53.59,8.34739031055102,53.59,7.72025659799154,53.59,13.2779263091365,53.59,10.1221917869821,53.59,10.942280302241
53.73,8.37915508200079,53.73,7.75190519530817,53.73,13.3406453840748,53.73,10.1390534316393,53.73,10.9440503249362
53.83,8.47039765551296,53.83,7.70630554179473,53.83,13.3557877333595,53.83,10.1695010699511,53.83,10.9137343272073
53.93,8.45382337675028,53.93,7.78104630266998,53.93,13.5353092155483,53.93,10.1374136041394,53.93,10.9574358495449
54.03,8.48423203530895,54.03,7.72025659799154,54.03,13.5958706573984,54.03,10.1982990319394,54.03,11.0483691333684
54.13,8.56025644294954,54.13,7.78104630266998,54.13,13.6867109793443,54.13,10.2135199286821,54.13,11.0029024914567
54.21,8.54643344029427,54.21,7.81270473332609,54.21,13.704068210852,54.21,10.1847244288252,54.21,11.0198403192586
54.34,8.62107468048152,54.34,7.8266381209715,54.34,13.7775522217048,54.34,10.2439626425821,54.34,11.0332135860645
54.43,8.68329822112604,54.43,7.76710461953089,54.43,13.8857791639589,54.43,10.2303963465747,54.43,11.080471394153
54.57,8.68189383842814,54.57,7.8266381209715,54.57,13.9895145069363,54.57,10.2439626425821,54.57,11.0483691333684
54.67,8.69850500985689,54.67,7.82790415754882,54.67,14.0674910376293,54.67,10.1847244288252,54.67,11.0956293930175
54.77,8.74271299637475,54.77,7.8266381209715,54.77,14.1409162707323,54.77,10.1982990319394,54.77,11.1696125913852
54.87,8.7883269046274,54.87,7.87222993927302,54.87,14.2014767921677,54.87,10.2135199286821,54.87,11.1696125913852
54.97,8.80210763571238,54.97,7.85576243110934,54.97,14.3354201339337,54.97,10.1966498891464,54.97,11.167806379776
55.08,8.75650110357685,55.08,7.84056700234664,55.08,14.426246686572,55.08,10.2270876802272,55.08,11.1375001867035
55.18,8.89188373478112,55.18,7.82410727598493,55.18,14.4693192432652,55.18,10.2406501243468,55.18,11.1508501056677
55.24,8.90852349087247,55.24,7.90134687686586,55.24,14.5473481432458,55.24,10.1966498891464,55.24,11.228418765921
55.37,8.90852349087247,55.37,7.85576243110934,55.37,14.6684495999197,55.37,10.2270876802272,55.37,11.2435718624573
55.47,8.93892815238475,55.47,7.85576243110934,55.47,14.7744136045757,55.47,10.2270876802272,55.47,11.2587249589935
55.61,8.90996430010599,55.61,7.91782267798916,55.61,14.7768031264267,55.61,10.2135199286821,55.61,11.2605458752088
55.71,8.95557912877327,55.71,7.88742782564994,55.71,14.8979250897123,55.71,10.2135199286821,55.71,11.215079233297
55.8,8.99973747540932,55.8,7.91654230562856,55.8,14.9409283375687,55.8,10.2423061156347,55.8,11.2738780555298
55.9,8.95413094327379,55.9,7.85576243110934,55.9,15.0166174381892,55.9,10.1966498891464,55.9,11.2132656693848
56,8.98598778733195,56,7.85703297331072,56,15.0190461325833,56,10.1678563180394,56,11.2605458752088
56.09,9.00119303702591,56.09,7.87222993927302,56.09,15.2007276968897,56.09,10.1830772147821,56.09,11.3363236117285
56.22,8.99973747540932,56.22,7.85576243110934,56.22,15.2134079954836,56.22,10.1357743069848,56.22,11.2587249589935
56.29,8.99973747540932,56.29,7.87095693960625,56.29,15.3345094521574,56.29,10.1509927423923,56.29,11.3041842486023
56.42,9.01493934603256,56.42,7.91654230562856,56.42,15.4404734568135,56.42,10.1509927423923,56.42,11.3041842486023
56.55,8.98453468452028,56.55,7.90134687686586,56.55,15.3950601804944,56.55,10.1205549513115,56.55,11.2738780555298
56.62,9.02868213010884,56.62,7.8392993278111,56.62,15.5136529610749,56.62,10.1797843846399,56.62,11.226603338473
56.72,9.01493934603256,56.72,7.84056700234664,56.72,15.5767132857709,56.72,10.1662120980656,56.72,11.1981125728485
56.85,9.0301421369216,56.85,7.84056700234664,56.85,15.6675398384092,56.85,10.0901180804965,56.85,11.2738780555298
56.94,9.01348179722965,56.94,7.82410727598493,56.94,15.7255467055513,56.94,10.0732698002112,56.94,11.2417539850341
57.04,9.02868213010884,57.04,7.88487732352362,57.04,15.8012226485284,57.04,10.0884866951965,57.04,11.2720552781562
57.13,9.04388154287103,57.13,7.8392993278111,57.13,15.8314944979064,57.13,10.0428369303578,57.13,11.2872059247173
57.26,9.07428128851242,57.26,7.82410727598493,57.26,15.8769004317395,57.26,10.058053825343,57.26,11.211452691912
57.37,8.96933281389704,57.37,7.77978804809323,57.37,15.9702944003596,57.37,9.96836691617325,57.37,11.2738780555298
57.46,8.98308205158827,57.46,7.80891522415876,57.46,16.0433882423828,57.46,10.0124040605043,57.46,11.1811513987898
57.59,8.98308205158827,57.59,7.79372225221558,57.59,16.0887941762159,57.59,9.9667552157826,57.59,11.226603338473
57.69,9.02868213010884,57.69,7.8392993278111,57.69,16.149334194504,57.69,9.90588947607566,57.69,11.1963020453509
57.78,9.01348179722965,57.78,7.76333722844624,57.78,16.1342001100489,57.78,9.93632234592913,57.78,11.1508501056677
57.9,8.95123597691644,57.9,7.77727275936122,57.9,16.2223891177122,57.9,9.96514403647193,57.9,11.1338993137043
57.97,9.01348179722965,57.97,7.76333722844624,57.97,16.3309579298363,57.97,9.95153832079736,57.97,11.1660007522288
58.1,8.96643293261223,58.1,7.67094282780851,58.1,16.3585830589384,58.1,9.88907370094476,58.1,11.0733065241923
58.19,8.98162988830802,58.19,7.76208224344325,58.19,16.4493802463803,58.19,9.88907370094476,58.19,11.1036029189483
58.3,8.95268322606388,58.3,7.74814517662007,58.3,16.4823098157905,58.3,9.86023971123696,58.3,11.1205488125456
58.39,8.9360381012524,58.39,7.70132247969205,58.39,16.5401774338221,58.39,9.88907370094476,58.39,11.1187511163263
58.52,8.93748289318469,58.52,7.68737512908137,58.52,16.5428516743126,58.52,9.84502373636873,58.52,11.0750968728624
58.61,8.89044631419677,58.61,7.68613242375821,58.61,16.6158411433781,58.61,9.79778985029311,58.61,11.0884547215703
58.74,8.87524843853272,58.74,7.67094282780851,58.74,16.6309746212639,58.74,9.7217204347342,58.74,11.0430110494046
58.84,8.89188373478112,58.84,7.68737512908137,58.84,16.7093394849559,58.84,9.73850823182308,58.84,11.0144952067351
58.94,8.89044631419677,58.94,7.625372660007,58.94,16.7217718087058,58.94,9.73693394985867,58.94,11.0127146546487
59.03,8.87524843853272,59.03,7.64056271594084,59.03,16.7217718087058,59.03,9.70650599964146,59.03,11.0430110494046
59.13,8.91939927693764,59.13,7.62414017695221,59.13,16.7493293058364,59.13,9.70493714462293,59.13,10.9352059332077
59.22,8.90564326989256,59.22,7.59499254813933,59.22,16.7974355182618,59.22,9.70650599964146,59.22,10.9521218651368
59.32,8.84485452714114,59.32,7.57980295218963,59.32,16.9033661835894,59.32,9.67607804942424,59.32,10.9521218651368
59.45,8.81303502151336,59.45,7.5937649753984,59.45,16.9006341056545,59.45,9.62888002410451,59.45,10.8897686862478
59.56,8.82965665147709,59.56,7.61018260407317,59.56,16.9336312994245,59.56,9.66086453429976,59.56,10.9369736677588
59.66,8.78122580014725,59.66,7.53179767359808,59.66,16.9432849920159,59.66,9.56648773578656,59.66,10.872865564453
59.78,8.79926182011726,59.78,7.54942284032196,59.78,16.9336312994245,59.78,9.63043658408254,59.78,10.8460844834909
59.88,8.75367003306163,59.88,7.48866261658662,59.88,17.0092950089805,59.88,9.53915273343089,59.88,10.8612326808689
59.98,8.75225518417961,59.98,7.51782743142367,59.98,16.9611545538704,59.98,9.47676486324811,59.98,10.8291856903014
60.07,8.78264510284648,60.07,7.45707748822584,60.07,17.1124593536884,60.07,9.50718789541939,60.07,10.7988941923281
60.16,8.75225518417961,60.16,7.47226508900274,60.16,17.0973283218149,60.16,9.44634183107683,60.16,10.7686026943549
60.27,8.6762808474222,60.27,7.41151468589513,60.27,17.0368060339598,60.27,9.44634183107683,60.27,10.7837484433415
60.38,8.7204557850238,60.38,7.42550210853908,60.38,17.0945653405089,60.38,9.4904429063348,60.38,10.7062892492006
60.47,8.70667076608908,60.47,7.41151468589513,60.47,17.1124593536884,60.47,9.43113077490098,60.47,10.7534569453683
60.6,8.7052637410784,60.6,7.3951318157121,60.6,17.079436753857,60.6,9.41439715721213,60.6,10.7062892492006
60.69,8.67487873351667,60.69,7.37994712913406,60.69,17.079436753857,60.69,9.35356092578236,60.69,10.6457169633251
60.81,8.61550101008845,60.81,7.42670228667203,60.81,17.1578506096699,60.81,9.33986167838714,60.81,10.6625824514486
60.92,8.64449372595495,60.92,7.3951318157121,60.92,17.1096939271607,60.92,9.32314281006748,60.92,10.6457169633251
60.98,8.6762808474222,60.98,7.39632708511822,60.98,17.0973283218149,60.98,9.30943864621586,60.98,10.5717088773485
61.1,8.62930168200954,61.1,7.33439168989358,61.1,17.064310006547,61.1,9.3079342120455,61.1,10.539713853619
61.18,8.62930168200954,61.18,7.33439168989358,61.18,17.0340528332433,61.18,9.29272469435259,61.18,10.5548571550056
61.31,8.53814665932437,61.31,7.33439168989358,61.31,17.064310006547,61.31,9.26230657863771,61.31,10.5548571550056
61.43,8.58511109142158,61.43,7.3507647426973,61.43,17.0216768417254,61.43,9.23338060587788,61.43,10.5717088773485
61.53,8.55333962294069,61.53,7.2888362506531,61.53,17.0189260859333,61.53,9.20147034720794,61.53,10.4791406480727
61.62,8.50913675466417,61.62,7.25963959794566,61.62,17.0368060339598,61.62,9.17253546135489,61.62,10.511125881402
61.74,8.55333962294069,61.74,7.2888362506531,61.74,17.0340528332433,61.74,9.17105315116397,61.74,10.4488540452995
61.84,8.49256960781724,61.84,7.24328127124808,61.84,17.0037974992814,61.84,9.14063503544909,61.84,10.4639973466861
61.94,8.50776165176264,61.94,7.24328127124808,61.94,16.9281582447059,61.94,9.11021691973421,61.94,10.4185674425264
62.02,8.47600689518747,62.02,7.24211092365214,62.02,16.8649203139895,62.02,9.09353785810819,62.02,10.4017431871664
62.14,8.44699255631011,62.14,7.18254114542956,62.14,16.8827743240922,62.14,9.03417117061153,62.14,10.3882808397532
62.24,8.43179959269379,62.24,7.25846641766157,62.24,16.8373904034785,62.24,9.03417117061153,62.24,10.3277076342069
62.33,8.43179959269379,62.33,7.21291097842109,62.33,16.7768778962129,62.33,9.01896257258955,62.33,10.3277076342069
62.45,8.37103049724126,62.45,7.18254114542956,62.45,16.8071350695166,62.45,9.01896257258955,62.45,10.3882808397532
62.55,8.41660754874839,62.55,7.18254114542956,62.55,16.7012386416374,62.55,8.98854445687467,62.55,10.2974210314337
62.67,8.40141458513206,62.67,7.13698570618908,62.67,16.7314939755993,62.67,8.94291682346688,62.67,10.2974210314337
62.76,8.37103049724126,62.76,7.12180055977559,62.76,16.6861118943274,62.76,9.00375305489665,62.76,10.3125643328203
62.85,8.31026048211781,62.85,7.12180055977559,62.85,16.6255993870618,62.85,8.94291682346688,62.85,10.2519911272739
62.97,8.35583753362494,62.97,7.15217085260257,62.97,16.6709833076755,62.97,8.88208059203711,62.97,10.2065621427851
63.05,8.27853763718743,63.05,7.12064984066753,63.05,16.5775364851157,63.05,8.88064545217735,63.05,10.1594904334486
63.15,8.34064548967953,63.15,7.12180055977559,63.15,16.5499601324863,63.15,8.88208059203711,63.15,10.1308456358522
63.27,8.31026048211781,63.27,7.04587528754357,63.27,16.4591922912589,63.27,8.79082624489246,63.27,10.1308456358522
63.39,8.31026048211781,63.39,7.06106043395707,63.39,16.4743190385689,63.39,8.74519953115559,63.39,10.0702724303058
63.49,8.26334804792679,63.49,7.07510222189902,63.49,16.486783309883,63.49,8.81981905048283,63.49,10.0837861605611
63.58,8.24815753914381,63.58,7.09028445498108,63.58,16.4414067222667,63.58,8.72857944794104,63.58,10.0535044514061
63.69,8.24815753914381,63.69,7.0599195290558,63.69,16.3960301346503,63.69,8.72857944794104,63.69,10.0535044514061
63.79,8.17220775379593,63.79,7.01437145052613,63.79,16.320403101638,63.79,8.65254690558405,63.79,10.0383635968286
63.91,8.12663806649166,63.91,6.99918875768291,63.91,16.3052769594176,63.91,8.68296010643131,63.91,9.96265932394106
64,8.18739734305658,64,7.02955414336935,64,16.2447760686256,64,8.66775396576884,64,9.97780017851857
64.07,8.20258785183955,64.07,6.95364113891441,64.07,16.1993994810092,64.07,8.66775396576884,64.07,9.96265932394106
64.18,8.15701816453528,64.18,6.96882383175763,64.18,16.2145256232296,64.18,8.62213370473679,64.18,9.96265932394106
64.33,8.09625796844804,64.33,6.93845844607118,64.33,16.0935201635562,64.33,8.60692756407432,64.33,9.90209590563103
64.43,8.0810683791874,64.43,6.93845844607118,64.43,16.0027688273682,64.43,8.59172050388952,64.43,9.87181419647602
64.51,8.12532520089126,64.51,6.92215729187849,64.51,15.9548143088569,64.51,8.52951592867283,64.51,9.87021939612118
64.6,8.0810683791874,64.6,6.87772813445946,64.6,16.0330192727642,64.6,8.48527476068527,64.6,9.85667334189852
64.7,8.03549777236081,64.7,6.87772813445946,64.7,15.8968895099151,64.7,8.530894102195,64.7,9.82639255226582
64.81,8.04938768529868,64.81,6.92215729187849,64.81,15.89432135329,64.81,8.52951592867283,64.81,9.80966668125897
64.93,8.01901249518689,64.93,6.87661703136827,64.93,15.8791976547113,64.93,8.45349566944062,64.93,9.77938986414098
65.03,8.0341996305559,65.03,6.84625655123686,65.03,15.818706537892,65.03,8.43829106596991,65.03,9.74911304702298
65.15,8.01901249518689,65.15,6.86143679130257,65.15,15.7582135823251,65.15,8.43829106596991,65.15,9.73397463846399
65.24,8.00382444044412,65.24,6.86143679130257,65.24,15.7279680239154,65.24,8.42308738187297,65.24,9.74911304702298
65.35,8.00253162434971,65.35,6.82997292297682,65.35,15.6951868941173,65.35,8.39132346854305,65.35,9.74753832354583
65.47,7.95826211496332,65.47,6.80071583103975,65.47,15.6977224655057,65.47,8.36227080673769,65.47,9.688559412787
65.56,7.9266063745487,65.56,6.84515071105737,65.56,15.6044630366605,65.56,8.33051671679254,65.56,9.71726639688449
65.66,7.95826211496332,65.66,6.75517557052953,65.66,15.5313691361311,65.66,8.2862496281317,65.66,9.56745214431503
65.74,7.88105140851315,65.74,6.75408444218669,65.74,15.4834985062016,65.74,8.25450781749176,65.74,9.58104272690845
65.86,7.83676227388995,65.86,6.80071583103975,65.86,15.4859998791428,65.86,8.27104594403476,65.86,9.62800577855101
65.99,7.88232459937074,65.99,6.72481509039812,65.99,15.5162454375525,65.99,8.24063765646712,65.99,9.58259055287402
66.08,7.82157421914717,66.08,6.69445461026672,66.08,15.3650148873827,66.08,8.21022936889948,66.08,9.55231373575603
66.16,7.85194940925896,66.16,6.70963485033242,66.16,15.3801376665876,66.16,8.21022936889948,66.16,9.50689851007904
66.28,7.80512615871214,66.28,6.75408444218669,66.28,15.3625330565174,66.28,8.19370198496652,66.28,9.49022694692442
66.4,7.78994055721677,66.4,6.70855107794503,66.4,15.2113269338311,66.4,8.16329860909127,66.4,9.42968401282701
66.49,7.74438559118122,66.49,6.70855107794503,66.49,15.2264472703322,66.49,8.13289523321601,66.49,9.47509098359375
66.61,7.76082475829737,66.61,6.6640945898222,66.61,15.1835378594295,66.61,8.13420910966726,66.61,9.49176010152005
66.7,7.74563670355459,66.7,6.6640945898222,66.7,15.1079230440316,66.7,8.13420910966726,66.7,9.40093056953984
66.82,7.76082475829737,66.82,6.6489143497565,66.82,15.0474310078384,66.82,8.13420910966726,66.82,9.37065375242185
66.91,7.6848867830179,66.91,6.63373410969079,66.91,15.0020617508501,66.91,8.04298424696433,66.91,9.37065375242185
67.03,7.68364548326294,67.03,6.6326625971549,67.03,14.954276617187,67.03,8.01128172971499,67.03,9.36914015950432
67.14,7.6684603413802,67.14,6.58712923291325,67.14,14.9089146884586,67.14,8.01128172971499,67.14,9.35400419617365
67.23,7.63809051722738,67.23,6.58712923291325,67.23,14.969396953688,67.23,8.02648295803998,67.23,9.35400419617365
67.35,7.62290537534465,67.35,6.58712923291325,67.35,14.8484324232291,67.35,8.01128172971499,67.35,9.30859630618164
67.45,7.59253509157919,67.45,6.54159632828423,67.45,14.7879501579997,67.45,7.90486945453896,67.45,9.27832437952029
67.56,7.63809051722738,67.56,6.52641854020367,67.56,14.7425882292713,67.56,7.88966822621397,67.56,9.30859630618164
67.65,7.57734994969646,67.65,6.55677411636478,67.65,14.8030704945007,67.65,7.95047497796448,67.65,9.26318841618962
67.74,7.60649159647331,67.74,6.54053986892888,67.74,14.7099706120702,67.74,7.91879252075814,67.74,9.21629186655191
67.83,7.50021322949818,67.83,6.51018919515411,67.83,14.694852717484,67.83,7.90359282833506,67.83,9.17089130987546
67.94,7.53179498366091,67.94,6.51124075212312,67.94,14.5460201778566,67.94,7.85926485033871,67.94,9.17237263620559
68.09,7.56216480781373,68.09,6.49606296404257,68.09,14.591382106585,68.09,7.82886147446346,68.09,9.20264456286694
68.18,7.53179498366091,68.18,6.42017448325244,68.18,14.4250556473977,68.18,7.81365932691319,68.18,9.11182878288291
68.3,7.50263656172096,68.3,6.45157214827613,68.3,14.4878780641478,68.3,7.79971794642319,68.3,9.11330080691892
68.39,7.48623955801272,68.39,6.48088563557465,68.39,14.4099353108966,68.39,7.78325687026321,68.39,9.05128492956022
68.48,7.47105441612999,68.48,6.45053005941354,68.48,14.3645733821682,68.48,7.76805472271295,68.48,9.12696474621358
68.56,7.44068459197717,68.56,6.40499669517189,68.56,14.3645733821682,68.56,7.76805472271295,68.56,9.02101392212415
68.69,7.36238046858562,68.69,6.4181011183297,68.69,14.2692398526543,68.69,7.70475895175657,68.69,9.07862401047436
68.8,7.42310142023812,68.8,6.4181011183297,68.8,14.3145871319628,68.8,7.71995618984533,68.8,9.03323170367363
68.92,7.39274094441187,68.92,6.38775534535806,68.92,14.2541243991943,68.92,7.68956217313202,68.92,9.01810062843059
69.01,7.34838725355565,69.01,6.40396229648081,69.01,14.1808351107838,69.01,7.66040556171881,69.01,8.98929000224649
69.12,7.34957420029343,69.12,6.38981890709133,69.12,14.0772814732967,69.12,7.61603784333667,69.12,8.96047006880147
69.24,7.37875217302111,69.24,6.38878695959342,69.24,14.1657172161975,69.24,7.66040556171881,69.24,8.94388944557004
69.34,7.37875217302111,69.34,6.37361208224444,69.34,14.0598901159403,69.34,7.59960863018015,69.34,8.89848888889359
69.42,7.30401877464524,69.42,6.35946379054286,69.42,13.9714372793389,69.42,7.60083615539904,69.42,8.88479025214811
69.51,7.39393486252305,69.51,6.34326140846967,69.51,13.9691809102692,69.51,7.55401139106456,69.51,8.837954813325
69.62,7.31684021431046,69.62,6.31189137239315,69.62,13.9366943629632,69.62,7.47680773185249,69.62,8.89705202648622
69.74,7.27247380604598,69.74,6.25220984668375,69.74,13.9389451210967,69.74,7.49321445952589,69.74,8.85308833221715
69.85,7.24210888658052,69.85,6.2977353978075,69.85,13.8633538100119,69.85,7.52361292529523,69.85,8.79255425664855
69.95,7.25729111654405,69.95,6.28256052045853,69.95,13.7877634180039,69.95,7.50841369241056,69.95,8.82282129443285
70.06,7.24210888658052,70.06,6.25220984668375,70.06,13.8482359154257,70.06,7.46281599375656,70.06,8.79255425664855
70.15,7.22692619707859,70.15,6.26738518357114,70.15,13.7272900015053,70.15,7.43241752798723,70.15,8.7774207377564
70.24,7.22692619707859,70.24,6.17633362178523,70.24,13.6365817149111,70.24,7.43241752798723,70.24,8.70175314329566
70.36,7.21174350757665,70.36,6.22185917290898,70.36,13.7424088151684,70.36,7.46281599375656,70.36,8.76228721886425
70.46,7.25729111654405,70.46,6.23703450979637,70.46,13.6063450066618,70.46,7.41721829510256,70.46,8.76228721886425
70.56,7.16619543907085,70.56,6.1915084991342,70.56,13.5156358009908,70.56,7.44761676087189,70.56,8.68661962440351
70.67,7.16503829464342,70.67,6.19050873997077,70.67,13.5588006750351,70.67,7.35523350285607,70.67,8.70034804832661
70.8,7.15216827504321,70.8,6.20768636934997,70.8,13.5480605035074,70.8,7.29680285625912,70.8,8.70315869218005
70.88,7.15101320910732,70.88,6.13080761112306,70.88,13.455163303569,70.88,7.3108236649099,70.88,8.61095294901958
71,7.04473484213219,71,6.13080761112306,71,13.4854000118183,71,7.3108236649099,71,8.65635258661921
71.09,7.11949804036825,71.09,6.14499053997751,71.09,13.3925279301895,71.09,7.2488560524842,71.09,8.65495482259747
71.18,7.089137564542,71.18,6.20568162645659,71.18,13.3774124767295,71.18,7.27924960973331,71.18,8.56416929006761
71.28,7.09028245109958,71.28,6.11563227423568,71.28,13.3946908061472,71.28,7.34122213067923,71.28,8.58068591123529
71.38,7.10431780245513,71.38,6.0691265670126,71.38,13.2716024646525,71.38,7.2488560524842,71.38,8.57930036531065
71.49,7.04473484213219,71.49,6.07010672311192,71.49,13.3342183087255,71.49,7.2652259662559,71.49,8.53528535455884
71.61,7.01436946312832,71.61,6.07010672311192,71.61,13.3493362033117,71.61,7.2196282676019,71.61,8.52015183566669
71.73,7.04473484213219,71.73,6.08528205999931,71.73,13.2435091030544,71.73,7.2196282676019,71.73,8.55041887345099
71.82,6.99805659652746,71.82,6.0691265670126,71.82,13.1809079060354,71.82,7.2184624952351,71.82,8.53390713958152
71.9,6.99805659652746,71.9,6.03878079404095,71.9,13.1809079060354,71.9,7.20326571661055,71.9,8.44312068812324
72.03,6.93733610433917,72.03,6.08429945349842,72.03,13.1809079060354,72.03,7.20326571661055,72.03,8.45825176336628
72.13,6.93733610433917,72.13,6.03878079404095,72.13,13.0448660681099,72.13,7.15767538073689,72.13,8.45825176336628
72.22,6.92215586642605,72.22,6.03878079404095,72.22,13.150676080187,72.22,7.11208504486323,72.22,8.41285853763714
72.31,6.93733610433917,72.31,6.00843502106931,72.31,13.1204451732669,72.31,7.12728182348778,72.31,8.38259638715105
72.46,6.84514983197586,72.46,6.00746497989703,72.46,13.0578739512442,72.46,7.14132547350366,72.46,8.38124304579052
72.57,6.84625513632463,72.57,6.03878079404095,72.57,13.0146351611899,72.57,7.11208504486323,72.57,8.38259638715105
72.64,6.8917953905998,72.64,5.99326213458349,72.64,13.0297506146499,72.64,7.09688872570289,72.64,8.367465311908
72.75,6.84625513632463,72.75,5.99326213458349,72.75,12.9844033353414,72.75,7.11208504486323,72.75,8.367465311908
72.87,6.81589466049838,72.87,5.96291682107604,72.87,13.0448660681099,72.87,7.06649516845378,72.87,8.33720316142191
72.95,6.81589466049838,72.95,5.99326213458349,72.95,13.0146351611899,72.95,7.09688872570289,72.95,8.26154778520668
73.06,6.82997204485994,73.06,5.9164428180342,73.06,12.9974209799759,73.06,7.09574295742299,73.06,8.22995764074076
73.18,6.78443868351219,73.18,5.90127238115873,73.18,12.9369670899276,73.18,7.00457700648157,73.18,8.29047125149263
73.27,6.76926089639628,73.27,5.9164428180342,73.27,12.9067410636835,73.27,7.05015998195228,73.27,8.24508535434369
73.39,6.73890578155448,73.39,5.94678369178516,73.39,12.9218540768056,73.39,7.01977133163847,73.39,8.22995764074076
73.51,6.73890578155448,73.51,5.93161325490968,73.51,12.8765141186594,73.51,7.08054863226608,73.51,8.19970037597479
73.6,6.73890578155448,73.6,5.90127238115873,73.6,12.8462880924153,73.6,6.97418835616777,73.6,8.22995764074076
73.68,6.70855020732265,73.68,5.85576152992232,73.68,12.8311741605132,73.68,6.98938268132467,73.68,8.19970037597479
73.8,6.73781798401105,73.8,5.88515226607785,73.8,12.8895470775105,73.8,7.00344632415607,73.8,8.18325058592537
73.88,6.72264264690112,73.88,5.85481628996592,73.88,12.7988817988156,73.88,6.98825445167474,73.88,8.10761963436751
74,6.69229197268127,74,5.80931232579802,74,12.76865973304,74,6.97306257919341,74,8.19837677623695
74.09,6.6619417577773,74.09,5.85481628996592,74.09,12.7535491594681,74.09,6.97306257919341,74.09,8.15299820530223
74.21,6.66301730536493,74.21,5.84059109304685,74.21,12.7102682179767,74.21,6.92860538069706,74.21,8.13918584644287
74.32,6.69337242020673,74.32,5.82542065617137,74.32,12.6800412729525,74.32,6.92860538069706,74.32,8.06354268452796
74.44,6.64783951824901,74.44,5.81025021929589,74.44,12.6498152467084,74.44,6.92860538069706,74.44,8.06354268452796
74.53,6.58606507222768,74.53,5.82448031385399,74.53,12.5873300942819,74.53,6.86671947182408,74.53,8.07736725374437
74.6,6.61641574644753,74.6,5.73347284483407,74.6,12.6477733072013,74.6,6.86671947182408,74.6,8.0622410634328
74.73,6.57088973511775,74.73,5.74864083289004,74.73,12.5419974549344,74.73,6.92748696174941,74.73,8.00173630218651
74.81,6.58606507222768,74.81,5.71830485677811,74.81,12.481554242015,74.81,6.88191134430541,74.81,7.97148392156337
74.93,6.6012404093376,74.93,5.70313686872214,74.93,12.4513321762395,74.93,6.89710321678674,74.93,8.00173630218651
75.05,6.58500211789065,75.05,5.73254749414898,75.05,12.4644307351649,75.05,6.86561122142514,75.05,8.03069236442961
75.14,6.5557148573237,75.14,5.71830485677811,75.14,12.4211110290957,75.14,6.82114385438008,75.14,7.9563577312518
75.25,6.55465680134286,75.25,5.70221641409517,75.25,12.3586719545333,75.25,6.80485353903531,75.25,7.95507361928743
75.34,6.51018884599393,75.34,5.64246537581416,75.34,12.3153342581971,75.34,6.76037636445475,75.34,7.9563577312518
75.45,6.52431102555332,75.45,5.6718857932831,75.45,12.3133466316222,75.45,6.75928527724293,75.45,7.92482612123056
75.56,6.50913813765855,75.56,5.68705133331001,75.56,12.2680222271945,75.56,6.78966411843785,75.56,7.89457862317368
75.69,6.46466329398003,75.69,5.65763336387012,75.69,12.1944478323583,75.69,6.74518449197342,75.69,7.91097916031708
75.77,6.44948795687011,75.77,5.65763336387012,75.77,12.2095584059302,75.77,6.77556823693609,75.77,7.88072677969394
75.86,6.46361993321599,75.86,5.56572747233651,75.86,12.0867209355498,75.86,6.74409585664547,75.86,7.84920737608838
75.98,6.43223603024275,75.98,5.56482933977683,75.98,12.0696648238484,75.98,6.69744666414552,75.98,7.87818337908729
76.07,6.44948795687011,76.07,5.62729738775819,76.07,12.0584508329477,76.07,6.69960887452943,76.07,7.88072677969394
76.18,6.40292838163692,76.18,5.58089301236342,76.18,12.0111793430202,76.18,6.637770371705,76.18,7.81896079651499
76.27,6.44844704532122,76.27,5.56572747233651,76.27,12.0262874778294,76.27,6.637770371705,76.27,7.81896079651499
76.38,6.40086225437599,76.38,5.5336102043536,76.38,11.9770960812962,76.38,6.620443945315,76.38,7.77108113073029
76.49,6.40292838163692,76.49,5.58089301236342,76.49,11.965854020109,76.49,6.62258095110755,76.49,7.78871329845812
76.59,6.38878660843041,76.59,5.53628991873828,76.59,11.8922308491297,76.59,6.62364997143864,76.59,7.72946579520997
76.67,6.38878660843041,76.67,5.53628991873828,76.67,11.8620097019859,76.67,6.6084580989573,76.67,7.77484436614468
76.79,6.37361127132049,76.79,5.50595394262635,76.79,11.8015664890665,76.79,6.57807435399464,76.79,7.74459198552154
76.88,6.31189151351006,76.88,5.50506531222889,76.88,11.7694445936551,76.88,6.59220210991263,76.88,7.71309455331594
77,6.32706440140483,77,5.5202308522558,77,11.724119270744,77,6.5314444275228,77,7.69797080428751
77.12,6.32706440140483,77.12,5.48990023144373,77.12,11.7090111359348,77.12,6.5314444275228,77.12,7.69797080428751
77.22,6.2663733090675,77.22,5.44440361136302,77.22,11.6787939478328,77.22,6.54663384812025,77.22,7.71309455331594
77.34,6.29671862561529,77.34,5.45956915138992,77.34,11.6485776782144,77.34,6.56182326871771,77.34,7.66772330623064
77.43,6.2663733090675,77.43,5.41407253130921,77.43,11.557927032392,77.43,6.47068674513296,77.43,7.6525995572022
77.52,6.23602753327796,77.52,5.44440361136302,77.52,11.588144220494,77.52,6.47068674513296,77.52,7.60722831011689
77.61,6.2663733090675,77.61,5.36857637047023,77.61,11.5428188975828,77.61,6.47068674513296,77.61,7.60722831011689
77.7,6.2663733090675,77.7,5.41407253130921,77.7,11.5126017094809,77.7,6.50106558632788,77.7,7.60722831011689
77.84,6.2208546453832,77.84,5.36857637047023,77.84,11.4823854398624,77.84,6.47068674513296,77.84,7.62235205914533
77.93,6.25120042117273,77.93,5.38374191049714,77.93,11.3766266592309,77.93,6.47068674513296,77.93,7.56185706303159
78.04,6.25120042117273,78.04,5.35341083044333,78.04,11.3615176059381,78.04,6.39473964214567,78.04,7.54673331400315
78.16,6.18950991705702,78.16,5.32222077350548,78.16,11.3143662071382,78.16,6.42408167222499,78.16,7.53039420115916
78.27,6.19050886959366,78.27,5.33824529041642,78.27,11.3010841482178,78.27,6.37955022154821,78.27,7.50136252615959
78.37,6.14300777045438,78.37,5.27588059387789,78.37,11.2823342012067,78.37,6.36230711885945,78.37,7.51406081979106
78.45,6.1449906651511,78.45,5.30791421036261,78.45,11.2255425556881,78.45,6.36436080095075,78.45,7.51648627518802
78.57,6.14399905781446,78.57,5.32222077350548,78.57,11.2086244926323,78.57,6.3633337942054,78.57,7.50015204326041
78.66,6.14399905781446,78.66,5.26156886152146,78.66,11.1482007869625,78.66,6.3329598551956,78.66,7.50015204326041
78.78,6.12981777725633,78.78,5.26241804952364,78.78,11.1348919098658,78.78,6.31879253915837,78.78,7.44086753004584
78.88,6.08331729993421,78.88,5.26156886152146,78.88,11.1330950901289,78.88,6.30258591618581,78.88,7.48503073472722
78.98,6.08331729993421,78.98,5.23124267594563,78.98,11.0575647692902,78.98,6.25702500767111,78.98,7.42454550059446
79.09,6.09848773940427,79.09,5.24640576873355,79.09,11.0575647692902,79.09,6.30258591618581,79.09,7.40942419206127
79.22,6.11365817887434,79.22,5.23124267594563,79.22,10.9669296699532,79.22,6.28739894668091,79.22,7.36406026646169
79.3,6.06814731963178,79.3,5.23124267594563,79.3,10.9367173579507,79.3,6.24183803816621,79.3,7.43966680912765
79.39,6.08331729993421,79.39,5.18575385674952,79.39,10.9820353667868,79.39,6.25702500767111,79.39,7.33381764939531
79.5,6.03780644069166,79.5,5.23124267594563,79.5,10.9367173579507,79.5,6.24183803816621,79.5,7.36406026646169
79.6,6.02263600122159,79.6,5.17059076396161,79.6,10.8762936522809,79.6,6.19627712965152,79.6,7.36406026646169
79.7,6.02166429486451,79.7,5.16975652860118,79.7,10.8745388453025,79.7,6.1952774076235,79.7,7.36287213153648
79.83,6.05200027853536,79.83,5.15459588226257,79.83,10.7990207107047,79.83,6.18009334751379,79.83,7.33263439388557
79.91,5.99132831119365,79.91,5.15459588226257,79.91,10.7688141914152,79.91,6.21046192682677,79.91,7.33263439388557
80.03,5.99132831119365,80.03,5.10911394324674,80.03,10.6932960568174,80.03,6.18009334751379,80.03,7.33263439388557
80.12,5.99132831119365,80.12,5.12427458958535,80.12,10.7084002346493,80.12,6.1952774076235,80.12,7.27215937767729
80.21,5.96099278661635,80.21,5.06363246332446,80.21,10.7084002346493,80.21,6.14972430910725,80.21,7.25704050885183
80.33,5.97616077845178,80.33,5.07879310966307,80.33,10.6328821000514,80.33,6.11935527070071,80.33,7.22680277120091
80.42,5.94582479478092,80.42,5.04847181698585,80.42,10.5724681432855,80.42,6.04343267468438,80.42,7.24192164002637
80.53,5.94582479478092,80.53,5.10911394324674,80.53,10.5875714029302,80.53,6.13453978990398,80.53,7.21168390237546
80.61,5.91644338409879,80.61,5.00379720246219,80.61,10.5741742055968,80.61,6.05959486327507,80.61,7.19772633176422
80.74,5.9306568029455,80.74,5.03331117064724,80.74,10.4516402297535,80.74,6.04343267468438,80.74,7.22680277120091
80.85,5.9306568029455,80.85,5.00298987797002,80.85,10.4667434893982,80.85,6.08898623229418,80.85,7.16632729589908
80.97,5.88515282743921,80.97,5.03331117064724,80.97,10.421432792277,80.97,6.05861719388764,80.97,7.16632729589908
81.06,5.87093252485624,81.06,4.95830838326609,81.06,10.3777964734186,81.06,5.98366001575058,81.06,7.15236240616465
81.15,5.82542120644605,81.15,4.973471476054,81.15,10.3777964734186,81.15,6.01403395476038,81.15,7.15236240616465
81.24,5.88515282743921,81.24,4.98782969072497,81.24,10.361018835511,81.24,6.02824815548111,81.24,7.12097114851626
81.35,5.90127294462873,81.35,4.95830838326609,81.35,10.2871613740816,81.35,5.99884698525548,81.35,7.15236240616465
81.47,5.80931332735563,81.47,4.97266904438636,81.47,10.300604878745,81.47,6.01306363627784,81.47,7.13608955824817
81.58,5.82448131919105,81.58,4.94234775170914,81.58,10.2099834845025,81.58,5.96751007866804,81.58,7.12097114851626
81.71,5.80931332735563,81.71,4.95750839804775,81.71,10.240190921979,81.71,5.9371410402615,81.71,7.06049567321443
81.8,5.7941453355202,81.8,4.89686581269331,81.8,10.1948802248578,81.8,5.9371410402615,81.8,7.06049567321443
81.91,5.80931332735563,81.91,4.89686581269331,81.91,10.1344662680918,81.91,5.95232555946477,81.91,7.07561454203989
81.98,5.7941453355202,81.98,4.91202645903192,81.98,10.1042588306152,81.98,5.95232555946477,81.98,7.1058522796908
82.06,5.82354173517441,82.06,4.89607586821635,82.06,10.0573254607833,82.06,5.86027293392991,82.06,7.05935669988434
82.17,5.7638098109429,82.17,4.89686581269331,82.17,10.0287416142045,82.17,5.92195652105823,82.17,7.06049567321443
82.3,5.7638098109429,82.3,4.85138433277103,82.3,9.998534176728,82.3,5.8915874826517,82.3,7.04537680438897
82.41,5.77897780277832,82.41,4.88170562544825,82.41,10.0136374363727,82.41,5.86121844424516,82.41,7.03025793556351
82.53,5.76288001423198,82.53,4.8354435245214,82.53,9.96671960329153,82.53,5.8754550036221,82.53,7.02912384007464
82.62,5.73347382727204,82.62,4.8059023937552,82.62,9.9230169603173,82.62,5.83084940583863,82.62,6.98490132908714
82.74,5.71738337926055,82.74,4.8354435245214,82.74,9.86101108647966,82.74,5.81472672485336,82.74,6.96865812045522
82.83,5.68797031085931,82.83,4.8059023937552,82.83,9.89280952284076,82.83,5.8460339250419,82.83,7.03025793556351
82.92,5.70313784360119,82.92,4.82106304009381,82.92,9.89280952284076,82.92,5.80048036743209,82.92,6.98490132908714
83.03,5.70221783427007,83.03,4.78996938150506,83.03,9.84591026323753,83.03,5.84509086423773,83.03,6.96865812045522
83.12,5.71830583543661,83.12,4.73009962115571,83.12,9.7719816093088,83.12,5.80048036743209,83.12,6.92442585378531
83.24,5.68705274829908,83.24,4.77481118082645,83.24,9.74020266446464,83.24,5.73881637639243,83.24,6.87796000004559
83.33,5.6718872033086,83.33,4.75965298014784,83.33,9.67979845345713,83.33,5.79954465516117,83.33,6.87796000004559
83.45,5.6718872033086,83.45,4.71417837811201,83.45,9.71000101798038,83.45,5.72363476571974,83.45,6.92330883074066
83.56,5.6272983435176,83.56,4.7149389748171,83.56,9.66625695542155,83.56,5.75492680982229,83.56,6.86395083757703
83.68,5.64155611332764,83.68,4.71417837811201,83.68,9.63449506569176,83.68,5.75399844608462,83.68,6.87796000004559
83.77,5.6272983435176,83.77,4.7149389748171,83.77,9.60584299865557,83.77,5.70937371130604,83.77,6.87906970640249
83.86,5.62639056833717,83.86,4.65354603441707,83.86,9.57409085468425,83.86,5.72363476571974,83.86,6.86284357014074
83.97,5.59605947835621,83.97,4.68386243577429,83.97,9.48348407915349,83.97,5.72363476571974,83.97,6.83261071033103
84.07,5.59696235984675,84.07,4.65429684855621,84.07,9.48501416693651,84.07,5.6790046728995,84.07,6.84883196875158
84.19,5.59605947835621,84.19,4.65354603441707,84.19,9.46838325591136,84.19,5.662906486951,84.19,6.81749428042618
84.3,5.58089439238522,84.3,4.63838783373846,84.3,9.51368664367674,84.3,5.69327062633537,84.3,6.83261071033103
84.4,5.55056330240426,84.4,4.62322963305985,84.4,9.40797904490385,84.4,5.63254234756663,84.4,6.83261071033103
84.49,5.58089439238522,84.49,4.62322963305985,84.49,9.39287730362274,84.49,5.64772441725882,84.49,6.77214499071162
84.58,5.61122502334669,84.58,4.62322963305985,84.58,9.37777648038061,84.58,5.67808855664319,84.58,6.78726142061647
84.69,5.55056330240426,84.69,4.59291369072212,84.69,9.39287730362274,84.69,5.60217820818226,84.69,6.77214499071162
84.81,5.55145884343401,84.81,4.57849407595671,84.81,9.34908299375983,84.81,5.6334511152897,84.81,6.77323762462429
84.9,5.56572884739474,84.9,4.57775549004351,84.9,9.27206888160772,84.9,5.61736027787445,84.9,6.75702856080677
85,5.48990158146184,85,4.57775549004351,85,9.22676549384234,85,5.63254234756663,85,6.7116797301117
85.11,5.5202322124233,85.11,4.5625972893649,85.11,9.21166467060021,85.11,5.60217820818226,85.11,6.75702856080677
85.23,5.51934185238904,85.23,4.54670563076876,85.23,9.17998122509211,85.23,5.60127463105191,85.23,6.71059720112297
85.33,5.53539775741378,85.33,4.50196448665046,85.33,9.1512604595927,85.33,5.57181406879789,85.33,6.66633044039714
85.42,5.52112285976316,85.42,4.53301213694089,85.42,9.12252950815352,85.42,5.5878975576799,85.42,6.68252487076509
85.53,5.45868991559516,85.53,4.53154987496123,85.53,9.13468606221567,85.53,5.52537652619558,85.53,6.66525522580998
85.65,5.45957049148088,85.65,4.50196448665046,85.65,9.06065368406195,85.65,5.54144992941353,85.65,6.66633044039714
85.74,5.47473603647136,85.74,4.48680674499134,85.74,9.01535029629657,85.74,5.49590372033697,85.74,6.62098115068258
85.83,5.45957049148088,85.83,4.50196448665046,85.83,9.00024947305444,85.83,5.52626785972134,85.83,6.66633044039714
85.93,5.460451351515,85.93,4.51785149060228,85.93,8.97149415714502,85.93,5.49679044246029,85.93,6.59181165781235
86.02,5.41407385650944,86.02,4.44133214295551,86.02,8.93984526204693,86.02,5.49590372033697,86.02,6.65121401049228
86.14,5.42923940149992,86.14,4.48680674499134,86.14,8.97004690853119,86.14,5.49590372033697,86.14,6.57563186096802
86.26,5.39890831151897,86.26,4.39585799993918,86.26,8.93984526204693,86.26,5.48072165064479,86.26,6.60586472077772
86.35,5.41407385650944,86.35,4.39585799993918,86.35,8.90964269752368,86.35,5.43517544156823,86.35,6.56051543106316
86.46,5.41407385650944,86.46,4.4261739422769,86.46,8.8039350987508,86.46,5.48072165064479,86.46,6.59074829087287
86.56,5.38287487986644,86.56,4.39514899058435,86.56,8.83271280236061,86.56,5.43429880036798,86.56,6.58968526695499
86.68,5.3685776805575,86.68,4.41101574159829,86.68,8.8039350987508,86.68,5.38962923249168,86.68,6.56051543106316
86.77,5.42923940149992,86.77,4.38069979926057,86.77,8.8039350987508,86.77,5.41999337187605,86.77,6.56051543106316
86.87,5.3685776805575,86.87,4.38069979926057,86.87,8.81903592199293,86.87,5.41999337187605,86.87,6.54539900115831
86.96,5.41320061879065,86.96,4.36483747896928,86.96,8.69682456005856,86.96,5.44947842133925,86.96,6.55945728341299
87.08,5.39890831151897,87.08,4.36554159858196,87.08,8.74353088774328,87.08,5.37444716279949,87.08,6.50005017046324
87.21,5.39890831151897,87.21,4.35038339790335,87.21,8.68312667673578,87.21,5.40481130218386,87.21,6.54539900115831
87.28,5.35341213556702,87.28,4.33522519722474,87.28,8.71332832322004,87.28,5.38962923249168,87.28,6.50005017046324
87.4,5.33824659057654,87.4,4.32006699654613,87.4,8.62272246572827,87.4,5.38962923249168,87.4,6.45470088074868
87.5,5.3685776805575,87.5,4.27459285352979,87.5,8.56231825472076,87.5,5.35926509310731,87.5,6.48493374055839
87.59,5.30791550059558,87.59,4.27459285352979,87.59,8.56231825472076,87.59,5.35926509310731,87.59,6.50005017046324
87.68,5.33738558306193,87.68,4.28905915887708,87.68,8.54583793013102,87.68,5.29768221162658,87.68,6.46877379173246
87.8,5.2927504146246,87.8,4.27459285352979,87.8,8.54721651343964,87.8,5.32890095372294,87.8,6.42446802093897
87.9,5.30705938519226,87.9,4.24359189145448,87.9,8.44014738097084,87.9,5.28250259065531,87.9,6.40831782464847
88.02,5.30705938519226,88.02,4.28905915887708,88.02,8.4854434617382,88.02,5.26732296968404,88.02,6.43854580819047
88.11,5.26157054733321,88.11,4.19812508297734,88.11,8.47034507411272,88.11,5.31286183259785,88.11,6.42343181641947
88.23,5.27758486963412,88.23,4.25943465285118,88.23,8.42640809142463,88.23,5.31371888403075,88.23,6.39423516112927
88.32,5.2927504146246,88.32,4.25943465285118,88.32,8.4113072681825,88.32,5.29853681433857,88.32,6.45470088074868
88.45,5.21608125052871,88.45,4.21328037983941,88.45,8.33445683181066,88.45,5.25214380765824,88.45,6.39320383287747
88.51,5.27673364626805,88.51,4.18296932716981,88.51,8.37975291257801,88.51,5.25214380765824,88.51,6.37808984110647
88.63,5.27673364626805,88.63,4.18296932716981,88.63,8.33445683181066,88.63,5.20660494474444,88.63,6.37808984110647
88.72,5.24640744839838,88.72,4.15265781555474,88.72,8.28916075104331,88.72,5.25214380765824,88.72,6.34786185756448
88.82,5.24725377965316,88.82,4.18364410847762,88.82,8.26029628164423,88.82,5.23780899458932,88.82,6.31865347062449
88.93,5.26241932464364,88.93,4.16848590779902,88.93,8.2904979281285,88.93,5.20744485520495,88.93,6.33376944150985
89.03,5.23124434946354,89.03,4.10719054813214,89.03,8.16837181425765,89.03,5.25214380765824,89.03,6.34786185756448
89.16,5.18491923430864,89.16,4.13683482832329,89.16,8.18215050018955,89.16,5.20576530517908,89.16,6.27128086074192
89.25,5.23040073644153,89.25,4.13683482832329,89.25,8.15195859460078,89.25,5.22094247821921,89.25,6.28639241516543
89.37,5.20091861053933,89.37,4.19812508297734,89.37,8.15327342663217,89.37,5.2217845657157,89.37,6.27229235765495
89.47,5.21608125052871,89.47,4.10719054813214,89.47,8.09287895823934,89.47,5.19142532377317,89.47,6.30252034119694
89.55,5.17142651372026,89.55,4.10785310508458,89.55,8.10928529510597,89.55,5.1618986461284,89.55,6.27330418090993
89.64,5.14026621479999,89.64,4.12234630393968,89.64,8.04758287747199,89.64,5.1307068398881,89.64,6.30252034119694
89.76,5.18575551160449,89.76,4.09203525127007,89.76,8.06268126509747,89.76,5.19142532377317,89.76,6.25717836588395
89.88,5.17059241266966,89.88,4.061723739655,89.88,8.01738518433012,89.88,5.2217845657157,89.88,6.24206437411295
90.01,5.14026621479999,90.01,4.04656798384747,90.01,8.01738518433012,90.01,5.16106608183064,90.01,6.25717836588395
90.11,5.17059241266966,90.11,4.0162564722324,90.11,7.97208910356277,90.11,5.11552721891684,90.11,6.24206437411295
90.2,5.15542931373482,90.2,4.04656798384747,90.2,7.97208910356277,90.2,5.14588646085937,90.2,6.22695038234195
90.29,5.12510311586515,90.29,4.061723739655,90.29,7.92679302279542,90.29,5.06998835600304,90.29,6.25717836588395
90.42,5.10994001693031,90.42,4.03141222803994,90.42,7.92679302279542,90.42,5.11552721891684,90.42,6.22695038234195
90.52,5.14026621479999,90.52,3.97078966375526,90.52,7.89659624754446,90.52,5.10034759794557,90.52,6.18160840702896
90.6,5.10994001693031,90.6,4.0162564722324,90.6,7.83620177915163,90.6,5.0851679769743,90.6,6.15138042348696
90.7,5.1410954237393,90.7,3.98658841769468,90.7,7.79216249878731,90.7,5.07080622797529,90.7,6.18260560148081
90.82,5.10994001693031,90.82,3.95563390794773,90.82,7.82110247363524,90.82,5.14588646085937,90.82,6.18160840702896
90.91,5.09477737694094,90.91,3.97078966375526,90.91,7.79090569838428,90.91,5.05480873503177,90.91,6.13626643171597
91.05,5.10994001693031,91.05,3.9404781521402,91.05,7.76070800524241,91.05,5.06998835600304,91.05,6.15138042348696
91.14,5.12510311586515,91.14,3.92532239633267,91.14,7.79090569838428,91.14,5.0396291140605,91.14,6.15138042348696
91.23,5.09477737694094,91.23,3.92532239633267,91.23,7.73051122999145,91.23,5.10034759794557,91.23,6.12115243994497
91.33,5.06445117907126,91.33,3.91016664052513,91.33,7.70031353684957,91.33,5.0396291140605,91.33,6.12115243994497
91.42,5.04928808013643,91.42,3.9404781521402,91.42,7.67011630265316,91.42,5.00926987211797,91.42,6.07581092357743
91.54,5.03412498120159,91.54,3.92532239633267,91.54,7.67011630265316,91.54,5.05480873503177,91.54,6.09092491534843
91.63,5.09477737694094,91.63,3.91016664052513,91.63,7.63991906845674,91.63,5.05480873503177,91.63,6.12115243994497
91.74,5.0796142780061,91.74,3.92532239633267,91.74,7.67011630265316,91.74,4.9940902511467,91.74,6.10603890711943
91.86,5.03493706782544,91.86,3.92595561498024,91.86,7.62605022998742,91.86,5.02526001889874,91.86,6.04655819135662
91.96,5.04765980278069,91.96,3.90890570320152,91.96,7.531798906746,91.96,4.97730504790192,91.96,6.07385161660433
92.09,5.00379924227738,92.09,3.87985558785553,92.09,7.57952414111846,92.09,5.00926987211797,92.09,6.06069693180643
92.18,5.04847381016705,92.18,3.84892328216269,92.18,7.54810946991077,92.18,5.00846205565738,92.18,6.04460800326071
92.26,5.04928808013643,92.26,3.89501134366306,92.26,7.53422851929656,92.26,4.9485513882329,92.26,6.01535495649344
92.37,5.04928808013643,92.37,3.81923279409812,92.37,7.54932690692204,92.37,4.97891063017544,92.37,6.04558294003544
92.46,5.01896188226676,92.46,3.83438832043293,92.46,7.50403082615469,92.46,4.96373100920417,92.46,6.04558294003544
92.59,5.01815250283082,92.59,3.8337699704377,92.59,7.47262832932451,92.59,4.91739901741659,92.59,6.01438489441369
92.66,4.95830994547287,92.66,3.81923279409812,92.66,7.42853797013638,92.66,4.9485513882329,92.66,6.00024096472244
92.78,5.00299230803415,92.78,3.81861688814842,92.78,7.38205123594388,92.78,4.94775336349685,92.78,5.99927333999018
92.91,5.01896188226676,92.91,3.80407703829059,92.91,7.39834027699451,92.91,4.9485513882329,92.91,5.97001298118045
93.01,4.97267100069792,93.01,3.80346357642342,93.01,7.36695482427805,93.01,4.90222184437646,93.01,5.92371556787263
93.1,4.98863614334254,93.1,3.78892128248306,93.1,7.35304465517262,93.1,4.88783290434784,93.1,6.00024096472244
93.19,4.9279837476032,93.19,3.78892128248306,93.19,7.35304465517262,93.19,4.93337176726164,93.19,5.93978499763845
93.29,4.95830994547287,93.29,3.77376575614825,93.29,7.33794580860168,93.29,4.9030125253191,93.29,5.97001298118045
93.42,4.9575103470298,93.42,3.75800387068416,93.42,7.27637773089741,93.42,4.90222184437646,93.42,5.95393867671965
93.52,4.9575103470298,93.52,3.75800387068416,93.52,7.26128131923159,93.52,4.88704467133633,93.52,5.96905023114316
93.61,4.9575103470298,93.61,3.72769747666989,93.61,7.23108895477138,93.61,4.90222184437646,93.61,5.92371556787263
93.72,4.97347304440771,93.72,3.72829871819838,93.72,7.24735410601244,93.72,4.9030125253191,93.72,5.95489898940945
93.84,4.98783165436603,93.84,3.71254416494489,93.84,7.18580017864534,93.84,4.8718674982962,93.84,5.92371556787263
93.91,4.91202838602546,93.91,3.71254416494489,93.91,7.15560781418512,93.91,4.8718674982962,93.91,5.93882712229614
94.03,4.9575103470298,94.03,3.72769747666989,94.03,7.15560781418512,94.03,4.85669032525607,94.03,5.90860447232057
94.13,4.95671100643854,94.13,3.71194556059711,94.13,7.15445405607255,94.13,4.87108196661315,94.13,5.87743354319566
94.26,4.9415527972486,94.26,3.71194556059711,94.26,7.12426655977816,94.26,4.90143141840994,94.26,5.90765177891968
94.33,4.92718903969358,94.33,3.66708445920563,94.33,7.15560781418512,94.33,4.84151315221594,94.33,5.89349291789706
94.46,4.91282064866837,94.46,3.65252016863345,94.46,7.12656471028132,94.46,4.8574736624053,94.46,5.86421549772892
94.55,4.94234969336169,94.55,3.63677783575563,94.55,7.06503072080449,94.55,4.82633597917581,94.55,5.84815825462653
94.62,4.9575103470298,94.62,3.62162475346636,94.62,7.04993430913866,94.62,4.81115880613567,94.62,5.84815825462653
94.75,4.89765800867899,94.75,3.65252016863345,94.75,7.05107139531755,94.75,4.82711442046277,94.75,5.84910150595792
94.84,4.88170753756068,94.84,3.63677783575563,94.84,7.00464553301262,94.84,4.84151315221594,94.84,5.81793514577951

