X,C10: Sample 58,X,D7: Sample 79,X,E11: Sample 107,X,F4: Sample 124,X,G6: Sample 150
24.56,6.27343161130169,24.56,4.78216743516183,24.56,6.89915387817653,24.56,5.42569400112294,24.56,5.16476818237755
24.63,6.2869710597806,24.63,4.75754687158078,24.63,6.83298710027372,24.63,5.40039665185926,24.63,5.13981842854702
24.82,6.30680326856123,24.82,4.85666259398251,24.82,6.83298710027372,24.82,5.42025107117699,24.82,5.15958700714026
25.02,6.28592007832628,25.02,4.81621123327089,25.02,6.81209937448682,25.02,5.37964277713656,25.02,5.09942926685233
25.09,6.26609058467529,25.09,4.77657145187093,25.09,6.85158970996169,25.09,5.37964277713656,25.09,5.15872448841623
25.16,6.28486944819452,25.16,4.75595651661786,25.16,6.75173489600744,25.16,5.29935249290883,25.16,5.09857694706847
25.23,6.24417343691634,25.23,4.75516173778821,25.23,6.77034546647217,25.23,5.33815583705752,25.23,5.09772491215085
25.29,6.24313013308394,25.29,4.75436722454881,25.29,6.80868478833419,25.29,5.3372639146119,25.29,5.09687316195667
25.42,6.24417343691634,25.42,4.75516173778821,25.42,6.80982260330551,25.42,5.33815583705752,25.42,5.03844890852475
25.49,6.22435057076991,25.49,4.75516173778821,25.49,6.84929974013884,25.49,5.35800030262225,25.49,5.07796624427548
25.63,6.20452770462348,25.63,4.75516173778821,25.63,6.82956147171409,25.63,5.31831137149279,25.63,5.05820757640012
25.75,6.20349102497359,25.75,4.75436722454881,25.75,6.7297437066932,25.75,5.3372639146119,25.75,5.05736242893539
25.82,6.18263844862123,25.82,4.75357297676656,25.82,6.72861945949863,25.82,5.3165344548969,25.82,5.09602169634324
25.95,6.20141870460446,25.95,4.71317261762848,25.95,6.766952943272,25.95,5.2958119200056,25.95,5.01617544680908
26.01,6.20349102497359,26.01,4.71474761265526,26.01,6.69027316587271,26.01,5.25789931515369,26.01,5.09687316195667
26.14,6.24000231237598,26.14,4.79158533922164,26.14,6.72637209160969,26.14,5.29492751587734,26.14,5.03508321119107
26.27,6.19934776831974,26.27,4.65220879919712,26.27,6.78441553847495,26.27,5.3138713052284,26.27,5.05398466140897
26.33,6.1419805047118,26.33,4.67356624094853,26.33,6.66830925491752,26.33,5.2759773982185,26.33,4.95692914553991
26.47,6.15973513481825,26.47,4.73139539955068,26.47,6.76469314933536,26.47,5.27421550895545,26.47,5.01450031725596
26.59,6.15973513481825,26.59,4.67200552422087,26.59,6.62663822380707,26.59,5.2345597126825,26.59,4.99475814517946
26.71,6.15973513481825,26.71,4.67200552422087,26.71,6.68580479174289,26.71,5.29404340709192,26.71,4.91578945687345
26.77,6.15973513481825,26.77,4.67200552422087,26.77,6.70552658139954,26.77,5.25438761081898,26.77,4.95527380102645
26.83,6.17850980858876,26.83,4.6910186770575,26.83,6.68468863067582,26.83,5.23368582959191,26.83,4.97418541951813
26.91,6.09828029038042,26.91,4.71002578229707,26.91,6.70328804807242,26.91,5.23281223823327,26.91,5.01282630613353
27.09,6.11705895371985,27.09,4.66966640262998,27.09,6.66274491141375,27.09,5.25175690941169,27.09,4.9527928561995
27.16,6.09726255334932,27.16,4.64987958918417,27.16,6.62332048103814,27.16,5.19230299655822,27.16,4.93306056838806
27.28,6.11705895371985,27.28,4.68945291648439,27.28,6.58389605066253,27.28,5.21212096750938,27.28,4.9527928561995
27.34,6.11705895371985,27.34,4.64987958918417,27.34,6.64303299581734,27.34,5.21212096750938,27.34,4.9527928561995
27.46,6.05766975260826,27.46,4.729026543376,27.46,6.62332048103814,27.46,5.25175690941169,27.46,4.93306056838806
27.53,6.03787335223773,27.53,4.64987958918417,27.53,6.60360796625894,27.53,5.23193893846053,27.53,4.97252514401095
27.71,6.01707336657626,27.71,4.64910370405332,27.71,6.60250607939655,27.71,5.23106593012774,27.71,4.97169542181105
27.84,6.07645205884347,27.84,4.66888721584496,27.84,6.60250607939655,27.84,5.21125126602973,27.84,4.91250843604456
27.89,6.07645205884347,27.89,4.64910370405332,27.89,6.58279745295676,27.89,5.19143660193173,27.89,4.95196642655555
28.01,6.0952280980429,28.01,4.60876795482293,28.01,6.60140456019745,28.01,5.17075913804429,28.01,4.91168886506758
28.08,6.07442488551274,28.08,4.64755271032386,28.08,6.54119665533932,28.08,5.16989662609466,28.08,4.89114745351135
28.2,6.05463839159778,28.2,4.66732962211156,28.2,6.58060135705919,28.2,5.20951273349728,28.2,4.95031439438656
28.31,6.05463839159778,28.31,4.60799918618993,28.31,6.5214940050379,28.31,5.15008857239335,28.31,4.93059198094767
28.43,5.99427962889782,28.43,4.6072306739841,28.43,6.5007075987239,28.43,5.14922965168415,28.43,4.94948879158563
28.55,6.05261916918937,28.55,4.64600275110748,28.55,6.55871064649206,28.55,5.18797391285257,28.55,4.86980041941544
28.62,5.95272767469671,28.62,4.60569441834089,28.62,6.51823217075729,28.62,5.10791637672882,28.62,4.88870106432153
28.73,6.01305997763741,28.73,4.60646241807714,28.73,6.53901516570939,28.73,5.16817246513882,28.73,4.90923179209856
28.8,5.99427962889782,28.8,4.58745706054726,28.8,6.48100823438818,28.8,5.12942490152749,28.8,4.87061259426858
28.91,5.93394039716703,28.91,4.5669217857052,28.91,6.49962360546082,28.91,5.12856956971133,28.91,4.90923179209856
29.08,6.01205746680419,29.08,4.60569441834089,29.08,6.51823217075729,29.08,5.16731081584486,29.08,4.86898851537752
29.2,6.01205746680419,29.2,4.56616037827177,29.2,6.49853997364931,29.2,5.08811823035681,29.2,4.86898851537752
29.25,6.0516100629591,29.25,4.52662663749436,29.25,6.49853997364931,29.25,5.12771452310084,29.25,4.86898851537752
29.32,5.97051343730852,29.32,4.62391931870404,29.32,6.45700133080576,29.32,5.08642219094669,29.32,4.80824758492264
29.43,5.9912819894768,29.43,4.5456357989429,29.43,6.43838876255724,29.43,5.10706491542248,29.43,4.84846761904787
29.55,5.9912819894768,29.55,4.5456357989429,29.55,6.45807767708527,29.55,5.06747582164429,29.55,4.88788614499092
29.67,5.93196208731633,29.67,4.56539922468313,29.67,6.39901033501754,29.67,5.06747582164429,29.67,4.84846761904787
29.78,5.91218878659617,29.78,4.5456357989429,29.78,6.43838876255724,29.78,5.06747582164429,29.78,4.7893398301333
29.89,5.99028344247855,29.89,4.52511776194853,29.89,6.37825760186887,29.89,5.06663124234069,29.89,4.827953563017
30.01,5.89143401501225,30.01,4.54487819297641,30.01,6.47668756223192,30.01,5.0468396953508,30.01,4.88707149730009
30.07,5.94876051196782,30.07,4.52360989198453,30.07,6.43517064088319,30.07,5.08472728185274,30.07,4.8263447814232
30.18,5.89045227296676,30.18,4.52436370133164,30.18,6.41656003966404,30.18,5.0657869445166,30.18,4.82714903817731
30.3,5.91021838540084,30.3,4.52436370133164,30.3,6.39687768701387,30.3,5.0459986955682,30.3,4.78774364955335
30.41,5.91021838540084,30.41,4.52436370133164,30.41,6.39687768701387,30.41,5.10536284412923,30.41,4.72863586575951
30.47,5.88947085805957,30.47,4.46434865183955,30.47,6.39581189599637,30.47,5.04515797602545,30.47,4.80664536979937
30.58,5.84896951991223,30.58,4.48335522228163,30.58,6.35539367360591,30.58,5.0245358804207,30.58,4.80584466259135
30.69,5.86872964501971,30.69,4.48335522228163,30.69,6.35539367360591,30.69,5.04431753658251,30.69,4.80584466259135
30.79,5.84896951991223,30.79,4.52285633378164,30.79,6.394746460065,30.79,5.00475392521647,30.79,4.76645270157507
30.91,5.88848977012719,30.91,4.46360496557404,30.91,6.31604148523165,30.91,4.98497226905466,30.91,4.76645270157507
31.01,5.80848167321663,31.01,4.50235576041371,31.01,6.37400826302685,31.01,4.98414199385995,31.01,4.78535137257989
31.08,5.84799534111144,31.08,4.48260849422995,31.08,6.27564387891987,31.08,5.00392035527556,31.08,4.76565882204449
31.18,5.88652857453348,31.18,4.50160599259349,31.18,6.33360773095796,31.18,5.02286242966952,31.18,4.84362318845432
31.36,5.84799534111144,31.36,4.50235576041371,31.36,6.35433514701137,31.36,5.02369901568378,31.36,4.78535137257989
31.47,5.86677503065001,31.47,4.44237435839695,31.47,6.31393789106504,31.47,5.00308706295994,31.47,4.74517563680083
31.53,5.86677503065001,31.53,4.46211833611007,31.53,6.33360773095796,31.53,5.00308706295994,31.53,4.78455447809653
31.62,5.84702148676654,31.62,4.44237435839695,31.62,6.27459880916485,31.62,5.00308706295994,31.62,4.74517563680083
31.73,5.80654744688522,31.73,4.48111578410866,31.73,6.31288661935491,31.73,4.98248227291627,31.73,4.7837578489793
31.84,5.82629770180034,31.84,4.42189401198908,31.84,6.2735540874184,31.84,5.00225404813094,31.84,4.70501298066211
31.95,5.7867971919701,31.95,4.44163470232663,31.95,6.31288661935491,31.95,4.94293872248692,31.95,4.68532668885955
32.06,5.82532778375443,32.06,4.44089529252101,32.06,6.27250971350673,32.06,4.98165282689114,32.06,4.72391274020689
32.17,5.84410186884705,32.17,4.40068818991192,32.17,6.27146568725615,32.17,4.96105846358119,32.17,4.72312646977743
32.27,5.80461450832101,32.27,4.42042200998775,32.27,6.31078512580652,32.27,4.96105846358119,32.27,4.74280620822053
32.38,5.76512714779497,32.38,4.42042200998775,32.38,6.31078512580652,32.38,5.02035434257081,32.38,4.70344673133432
32.48,5.80558081671261,32.48,4.42115788846453,32.48,6.29217300442682,32.48,4.96188434313231,32.48,4.72391274020689
32.59,5.72468754072476,32.59,4.38022500562881,32.59,6.23110911336733,32.59,4.97999476304462,32.59,4.68298753424704
32.64,5.80364852154978,32.64,4.43941721121213,32.64,6.29007875479979,32.64,4.94047095477724,32.64,4.68298753424704
32.76,5.76416773239344,32.76,4.41968637643642,32.76,6.21145236706062,32.76,4.92070905064355,32.76,4.7026639976463
32.86,5.76320863626493,32.86,4.39922373460746,32.86,6.24972579879888,32.86,4.95940752898432,32.86,4.6625351455448
33.02,5.78198368573822,33.02,4.39849187239907,33.02,6.24868608397625,33.02,4.93882714477731,33.02,4.76010906131345
33.13,5.70399790369299,33.13,4.37949618283253,33.13,6.23007232316543,33.13,4.95940752898432,33.13,4.70188152443538
33.23,5.80268285623838,33.23,4.39922373460746,33.23,6.32833850655617,33.23,4.93964891302104,33.23,4.64286195609951
33.32,5.74347212366644,33.32,4.39922373460746,33.32,6.23007232316543,33.32,4.91989029705775,33.32,4.68220833499009
33.43,5.72278280356265,33.43,4.39849187239907,33.43,6.17008585707147,33.43,4.93882714477731,33.43,4.68142939499092
33.53,5.74156145429729,33.53,4.39776025365782,33.53,6.12976628410611,33.53,4.95775769281367,33.53,4.73965064853443
33.63,5.76129140118966,33.63,4.37803926460804,33.63,6.22799977748241,33.63,4.87874981979209,33.63,4.71998400372967
33.74,5.72087933347997,33.74,4.37731116893789,33.74,6.22696402165712,33.74,4.87793845278398,33.74,4.71919904048275
33.84,5.79978778745928,33.84,4.39702887826223,33.84,6.20732035151626,33.84,4.91743567026727,33.84,4.66020891813143
33.94,5.78006052469191,33.94,4.43646399836583,33.94,6.20732035151626,33.94,4.97668194430985,33.94,4.66020891813143
34.1,5.78006052469191,34.1,4.39702887826223,34.1,6.18767727846559,34.1,4.87793845278398,34.1,4.67987229224854
34.14,5.73965205574248,34.14,4.39629774609092,34.14,6.22592861028006,34.14,4.89687282981866,34.14,4.69875423376399
34.24,5.71992807319838,34.24,4.35686888471172,34.24,6.18664839963645,34.24,4.89687282981866,34.24,4.65943402472967
34.35,5.75841793914417,34.35,4.33643369603335,34.35,6.18561986291165,34.35,4.93554280419891,34.35,4.65865938898159
34.4,5.73774392673459,34.4,4.41454378922979,34.4,6.16495779369292,34.4,4.8952448800747,34.4,4.71684571649315
34.55,5.71897712921281,34.55,4.37585570387756,34.55,6.14634618264388,34.55,4.8763165281114,34.55,4.65865938898159
34.71,5.7574607553112,34.71,4.39483621093597,34.71,6.24349269461124,34.71,4.8952448800747,34.71,4.63823144218053
34.76,5.71802650136554,34.76,4.37512833424593,34.76,6.14532451605767,34.76,4.87550597017787,34.76,4.67753857933684
34.86,5.77717818068026,34.86,4.37512833424593,34.86,6.20422494575586,34.86,4.87550597017787,34.86,4.65788501075869
34.96,5.71802650136554,34.96,4.33571287926207,34.96,6.16495779369292,34.96,4.91498349157532,34.96,4.65788501075869
35.1,5.73679033791512,35.1,4.31528770076007,35.1,6.12467257770417,35.1,4.89443131104029,35.1,4.67676119217059
35.2,5.73583706600786,35.2,4.35397299312999,35.2,6.143282201496,35.2,4.91335006402743,35.2,4.65633702637492
35.3,5.73583706600786,35.3,4.3342719643803,35.3,6.143282201496,35.3,4.85415331250428,35.3,4.65633702637492
35.4,5.6964153209031,35.4,4.35397299312999,35.4,6.18253630365796,35.4,4.87388566244434,35.4,4.65633702637492
35.49,5.73583706600786,35.49,4.37367432017672,35.49,6.16290895427993,35.49,4.87388566244434,35.49,4.67598406335833
35.64,5.75459111213693,35.64,4.29415575831634,35.64,6.16188504516641,35.64,4.85334684077932,35.64,4.61627617257743
35.74,5.7733395240818,35.74,4.33283200691705,35.74,6.10199958662607,35.74,4.85254063698517,35.74,4.6547900705522
35.79,5.73488411085484,35.79,4.37294767549818,35.79,6.16188504516641,35.79,4.85334684077932,35.79,4.63591964714373
35.88,5.75459111213693,35.88,4.35324962164085,35.88,6.20113262563005,35.88,4.89280498397232,35.88,4.69485096558508
36.02,5.79304384817154,36.02,4.29344244340632,36.02,6.12162041529003,36.02,4.91171772181347,36.02,4.67443058028081
36.17,5.73393147229822,36.17,4.37222127222982,36.17,6.12162041529003,36.17,4.89199222566934,36.17,4.6547900705522
36.23,5.73297915018025,36.23,4.27303785469835,36.23,6.14022127364274,36.23,4.81228966463578,36.23,4.61474278072472
36.37,5.71327809869043,36.37,4.31242087617893,36.37,6.14022127364274,36.37,4.8714572191646,36.37,4.67365422575825
36.42,5.67387599571078,36.42,4.31242087617893,36.42,6.14022127364274,36.42,4.83201218281206,36.42,4.61474278072472
36.56,5.73202714434329,36.56,4.35108094863106,36.56,6.06074498915282,36.56,4.85092903265539,36.56,4.67287812907513
36.66,5.75267960537323,36.66,4.29272936543864,36.66,6.14022127364274,36.66,4.8714572191646,36.66,4.63437973030362
36.8,5.79111988807583,36.8,4.35108094863106,36.8,6.13920164207953,36.8,4.7917713033598,36.8,4.61397646674586
36.84,5.75172432812225,36.84,4.35108094863106,36.84,6.06074498915282,36.84,4.81149054645833,36.84,4.65324414226574
36.98,5.81081766805262,36.98,4.29201652429526,36.98,6.13920164207953,36.98,4.81149054645833,36.98,4.67287812907513
37.03,5.79015838718125,37.03,4.37004350968347,37.03,6.13818234909562,37.03,4.85012363185302,37.03,4.67210229010301
37.17,5.74981472509167,37.17,4.2709098477986,37.17,6.11755559429714,37.17,4.849318498448,37.17,4.65169924049208
37.26,5.77046387763115,37.26,4.37004350968347,37.26,6.13818234909562,37.26,4.8106916936364,37.26,4.61321040722955
37.36,5.74981472509167,37.36,4.2709098477986,37.36,6.1371633945224,37.36,4.849318498448,37.36,4.65169924049208
37.46,5.78919720551007,37.46,4.32995496043171,37.46,6.11755559429714,37.46,4.82960580224293,37.46,4.71058164515651
37.58,5.78919720551007,37.58,4.29059155200964,37.58,6.1371633945224,37.58,4.86903119465307,37.58,4.67132670871355
37.74,5.78919720551007,37.74,4.29059155200964,37.74,6.1371633945224,37.74,4.86903119465307,37.74,4.67132670871355
37.83,5.76854837094978,37.83,4.28987942063171,37.83,6.17535327392757,37.83,4.84851363230718,37.83,4.6901755953289
37.87,5.80792431485691,37.87,4.34891443529564,37.87,6.13614477819136,37.87,4.88793248108372,37.87,4.7097998058793
37.97,5.78823634290334,37.97,4.32923629570799,37.97,6.15574872810898,37.97,4.80909478353063,37.97,4.7294240164297
38.11,5.84632991355017,38.11,4.26949235365728,38.11,6.13512649993411,38.11,4.80829672598275,38.11,4.65015536420914
38.24,5.78727579920223,38.24,4.28916752560672,38.24,6.13512649993411,38.24,4.80829672598275,38.24,4.6893972721302
38.34,5.8256784516398,38.34,4.30812777426138,38.34,6.19290148891111,38.34,4.86660758529784,38.34,4.70823690566166
38.41,5.84535989033571,38.41,4.34747129129853,38.41,6.15370600412421,38.41,4.86660758529784,38.41,4.74747230256432
38.51,5.84535989033571,38.51,4.30812777426138,38.51,6.19290148891111,38.51,4.846904701286,38.51,4.68861920721032
38.6,5.8847221720243,38.6,4.24911234977985,38.6,6.15370600412421,38.6,4.846904701286,38.6,4.66900150875899
38.73,5.9044036107202,38.73,4.288455866817,38.73,6.17330404436927,38.73,4.86660758529784,38.73,4.74747230256432
38.79,5.8247120152676,38.79,4.287744444145,38.79,6.17227993951785,38.79,4.8461006361398,38.79,4.70745584446297
38.92,5.8443901889604,38.92,4.30741308816744,38.92,6.17227993951785,38.92,4.80670140523757,38.92,4.70745584446297
39.05,5.8827700333041,39.05,4.3066986391563,39.05,6.15166463540498,39.05,4.86499318570079,39.05,4.72628623303848
39.15,5.8827700333041,39.15,4.28703325747322,39.15,6.15166463540498,39.15,4.84529683772611,39.15,4.72628623303848
39.23,5.8827700333041,39.23,4.32636402083938,39.23,6.19084711787482,39.23,4.84529683772611,39.23,4.72628623303848
39.36,5.9024449430769,39.36,4.34602910476966,39.36,6.19084711787482,39.36,4.82560048975143,39.36,4.68706385169292
39.5,5.88179444955065,39.5,4.28632230668426,39.5,6.20940873337053,39.5,4.84449330591223,39.5,4.72550243764328
39.58,5.94080939035673,39.58,4.28632230668426,39.58,6.18982044339424,39.58,4.86418638749421,39.58,4.74511037604563
39.67,5.90048757450019,39.67,4.24629416881498,39.67,6.16920966264527,39.67,4.84369004056553,39.67,4.7639279789371
39.76,5.94080939035673,39.76,4.28632230668426,39.76,6.20940873337053,39.76,4.84449330591223,39.76,4.74511037604563
39.85,5.94080939035673,39.85,4.32564654753576,39.85,6.18982044339424,39.85,4.84449330591223,39.85,4.74511037604563
39.98,5.95949273004001,39.98,4.28561159166076,39.98,6.2083791514217,39.98,4.86337985683802,39.98,4.7639279789371
40.06,5.95949273004001,40.06,4.28561159166076,40.06,6.26713368224041,40.06,4.86337985683802,40.06,4.70511421495984
40.15,5.97816987498202,40.15,4.34386761814593,40.15,6.26609470119229,40.15,4.86257359359915,40.15,4.76313820307853
40.28,6.03816567545165,40.28,4.30527045191069,40.28,6.22796419346398,40.28,4.90275919172892,40.28,4.7639279789371
40.37,6.0371646532906,40.37,4.28490111228549,40.37,6.28567590116804,40.37,4.8822601456448,40.37,4.76313820307853
40.5,6.01650209806542,40.5,4.30384321158186,40.5,6.28463401887048,40.5,4.90113387789111,40.5,4.76234868903857
40.59,6.03516360435016,40.59,4.32277903242304,40.59,6.30316778660964,40.59,4.86096186884158,40.59,4.82034425698843
40.72,6.07548769280446,40.72,4.32349555472246,40.72,6.30421256827492,40.72,4.86176759764463,40.72,4.7819468770986
40.8,6.07649490230261,40.8,4.30455671344054,40.8,6.32483889632895,40.8,4.90194640008573,40.8,4.80234107727155
40.89,6.11481082751972,40.89,4.3824522865889,40.89,6.30421256827492,40.89,4.90113387789111,40.89,4.7819468770986
41.01,6.13447269243273,41.01,4.32349555472246,41.01,6.28463401887048,41.01,4.88145088654557,41.01,4.8407414412787
41.09,6.11481082751972,41.09,4.30384321158186,41.09,6.34336907197302,41.09,4.92081716679205,41.09,4.8407414412787
41.23,6.15311464774062,41.23,4.32277903242304,41.23,6.38146781538348,41.23,4.93968167868674,41.23,4.85953413718935
41.31,6.15209507613371,41.31,4.36135411082411,41.31,6.41955393286405,41.31,4.87983317291291,41.31,4.83913721876295
41.44,6.13243972716598,41.44,4.38099994117495,41.44,6.38041040563776,41.44,4.9191864071676,41.44,4.89791200095795
41.5,6.23071647200461,41.5,4.34170828047328,41.5,6.34126687841147,41.5,4.93886317302333,41.5,4.87832030774069
41.62,6.21106112303688,41.62,4.34170828047328,41.62,6.43912599393398,41.62,4.93886317302333,41.62,4.87832030774069
41.74,6.25037122605878,41.74,4.36135411082411,41.74,6.43912599393398,41.74,4.95853993887906,41.74,4.87832030774069
41.87,6.26898780322812,41.87,4.36063155381437,41.87,6.47719624920514,41.87,4.97739195047622,41.87,4.91668899840083
41.95,6.26898780322812,41.95,4.34098897823993,41.95,6.41849038847491,41.95,4.95771844452205,41.95,4.91668899840083
42.07,6.30724705024439,42.07,4.43846622632781,42.07,6.49568890984913,42.07,4.97656746945079,42.07,4.89628936984947
42.16,6.36619296754724,42.16,4.4188269044515,42.16,6.51525389216711,42.16,5.01590826107417,42.16,4.95504497788302
42.29,6.36619296754724,42.29,4.43846622632781,42.29,6.51525389216711,42.29,4.9962380139416,42.29,4.95504497788302
42.37,6.40549064222679,42.37,4.37954855805712,42.37,6.51525389216711,42.37,4.97656746945079,42.37,4.99421538323872
42.45,6.38584180488702,42.45,4.37954855805712,42.45,6.573950028554,42.45,5.03557850820674,42.45,4.95504497788302
42.58,6.42513947956657,42.58,4.43846622632781,42.58,6.573950028554,42.58,5.05524816062285,42.58,5.01380058591657
42.65,6.46336652868232,42.65,4.41809506826329,42.65,6.65110942298805,42.65,5.05441092177545,42.65,4.99338825250284
42.77,6.48301211182578,42.77,4.43773113751921,42.77,6.59242360234142,42.77,5.034744527003,42.77,5.0129702115234
42.86,6.5201429806194,42.86,4.3773732855945,42.86,6.62935180426294,42.86,5.03307739305366,42.86,4.99173481268413
42.98,6.57906021456984,42.98,4.41663212287644,42.98,6.68801819251863,42.98,5.09205823005941,42.98,4.99173481268413
43.11,6.6379768540992,43.11,4.43626169012268,43.11,6.72712991058385,43.11,5.05273727577486,43.11,5.05046123746865
43.23,6.61833777611572,43.23,4.45589096015838,43.23,6.72712991058385,43.23,5.07239775291713,43.23,5.1091870678321
43.31,6.57906021456984,43.31,4.47552052740462,43.31,6.80535215787215,43.31,5.09205823005941,43.31,5.07003611797575
43.43,6.695785514289,43.43,4.45515335198752,43.43,6.74556835924187,43.43,5.13052975888719,43.43,5.1474857849426
43.55,6.65761593208268,43.55,4.45589096015838,43.55,6.82490801690476,43.55,5.13137918434396,43.55,5.1091870678321
43.64,6.695785514289,43.64,4.45515335198752,43.64,6.80422563044989,43.64,5.11087253625197,43.64,5.1083413159586
43.72,6.71542134130774,43.72,4.51403230555512,43.72,6.80422563044989,43.72,5.13052975888719,43.72,5.0887690814666
43.83,6.83323570909751,43.83,4.53365832624964,43.83,6.86288290165791,43.83,5.18950142679283,43.83,5.1866302539266
43.96,6.87250676881232,43.96,4.49440598769925,43.96,6.92153957854325,43.96,5.13052975888719,43.96,5.1866302539266
44.04,6.87136931320676,44.04,4.53290796902914,44.04,6.92039400761003,44.04,5.16898855301492,44.04,5.18577182455654
44.13,6.87023223405514,44.13,4.57139750475073,44.13,6.91924881581661,44.13,5.16813318505977,44.13,5.26317670664162
44.25,6.96953219885739,44.25,4.55253103857023,44.25,6.97904157056396,44.25,5.18864252222038,44.25,5.28361680019885
44.36,7.00763693814884,44.36,4.51253833490956,44.36,7.03652453164241,44.36,5.22708533561711,44.36,5.26317670664162
44.44,7.04689559478304,44.44,4.57139750475073,44.44,7.03652453164241,44.44,5.28603748617445,44.44,5.32187397715271
44.56,7.04689559478304,44.56,4.61063685229051,44.56,7.05607068232204,44.56,5.24673605246956,44.56,5.34143913986376
44.68,7.10578357973433,44.68,4.61063685229051,44.68,7.13425409678858,44.68,5.20743461876466,44.68,5.30230822031568
44.8,7.10460790409242,44.8,4.62949058315004,44.8,7.13307371060446,44.8,5.30481035918126,44.8,5.34055538090614
44.88,7.28124144124916,44.88,4.62949058315004,44.88,7.17215894998412,44.88,5.30481035918126,44.88,5.41880545937482
44.95,7.24318768970205,44.95,4.64987619983029,44.95,7.19289195470148,44.95,5.32533891987934,44.95,5.38057065353782
45.08,7.30086752182828,45.08,4.70795629366721,45.08,7.30895758482677,45.08,5.3441052903326,45.08,5.45793049860916
45.18,7.31928260263861,45.18,4.6679511102964,45.18,7.32728817721257,45.18,5.40215388264487,45.18,5.43746833168364
45.26,7.3781505104562,45.26,4.6679511102964,45.26,7.30774849341489,45.26,5.38250966727029,45.26,5.49614618208869
45.38,7.37693017461259,45.38,4.64756895064083,45.38,7.3651485640193,45.38,5.36197844140085,45.38,5.49523712714623
45.5,7.53388628739103,45.5,4.72600900183459,45.5,7.38468442214925,45.5,5.40126037389815,45.5,5.45612503036615
45.62,7.4750281162436,45.62,4.70639891480725,45.62,7.46282963616258,45.62,5.40126037389815,45.62,5.51479317553627
45.7,7.61236404686466,45.7,4.74561908886192,45.7,7.44329318420145,45.7,5.4601832726441,45.7,5.55390527231635
45.81,7.6136233295854,45.81,4.74640413751186,45.81,7.52268204554232,45.81,5.46108652876861,45.81,5.57438331596209
45.93,7.61110518064226,45.93,4.76444114394352,45.93,7.61785889324981,45.93,5.51819346985683,45.93,5.65075029418756
46,7.7288032435034,46,4.80365453524217,46,7.61785889324981,46,5.49855575165949,46,5.65075029418756
46.11,7.80726802501119,46.11,4.80365453524217,46.11,7.71552381175127,46.11,5.59674434264621,46.11,5.7680671804778
46.2,7.82559024111489,46.2,4.78325667798315,46.2,7.73377808832952,46.2,5.57618448380329,46.2,5.78666304710903
46.35,7.88442894858139,46.35,4.84206718779634,46.35,7.83142685853096,46.35,5.59581895502342,46.35,5.74756388422339
46.43,7.88312552174247,46.43,4.82166664916129,46.43,7.81060543095358,46.43,5.55563142273152,46.43,5.80525276533007
46.51,7.96156495372807,46.51,4.86086707521236,46.51,7.86918512600527,46.51,5.61452509868093,46.51,5.86389122051196
46.62,8.0792235081698,46.62,4.88046743662206,46.62,7.86918512600527,46.62,5.63415573046073,46.62,5.80525276533007
46.74,8.13805248862233,46.74,4.91966786267313,46.74,8.06445038048644,46.74,5.65378695577721,46.74,5.88343757008481
46.84,8.19688206261153,46.84,4.95886828872419,46.84,8.04492361762366,46.84,5.69304940641015,46.84,5.94207661880336
46.96,8.25571104306406,46.96,4.93926822408283,46.96,8.12302948200146,46.96,5.69304940641015,46.96,5.94207661880336
47.08,8.29493075905686,47.08,4.93926822408283,47.08,8.16208300772703,47.08,5.75194308235957,47.08,6.02026201709477
47.19,8.37198556947314,47.19,5.03643712779533,47.19,8.23882685741523,47.19,5.80987628942331,47.19,5.98018069492131
47.26,8.41119880286825,47.26,4.99724288443425,47.26,8.25834979927534,47.26,5.79024830893747,47.26,6.03881005123511
47.34,8.45041203626337,47.34,5.01684000611479,47.34,8.35596628889159,47.34,5.82950426990915,47.34,6.07789628877765
47.45,8.5876577597077,47.45,5.0952278993984,47.45,8.33644334703148,47.45,5.82950426990915,47.45,6.11698193288162
47.6,8.66465145926445,47.6,5.09438585215011,47.6,8.45218572301643,47.6,5.88741508490636,47.6,6.17459069569201
47.67,8.70385821220453,47.67,5.1139797351723,47.67,8.51074605608,47.67,5.88741508490636,47.67,6.23321036280464
47.78,8.78227112474421,47.78,5.15316750121668,47.78,8.53026636488135,47.78,5.98553876854488,47.78,6.25275025184218
47.89,8.89842022003391,47.89,5.17190666490902,47.89,8.62644109981417,47.89,5.92568526811749,47.89,6.32986372243255
48.01,8.89842022003391,48.01,5.21108736253481,48.01,8.74354182030855,48.01,6.00417124428361,48.01,6.36893644993239
48.08,9.03412783718544,48.08,5.22981386159391,48.08,8.76161118206911,48.08,5.98356105872544,48.08,6.3678842549134
48.19,9.15170863940219,48.19,5.2494012705097,48.19,8.83966543180004,48.19,6.10127057328616,48.19,6.42648455322804
48.31,9.15019695974587,48.31,5.26811834763173,48.31,8.89673660952318,48.31,6.0218027175989,48.31,6.44495323245053
48.42,9.21049933708279,48.42,5.32775031302842,48.42,8.95674680639644,48.42,6.06203406843258,48.42,6.52415171708578
48.49,9.28888634084581,48.49,5.34733772194421,48.49,9.09334203999779,48.49,6.10127057328616,48.49,6.54368514985733
48.6,9.40491338238482,48.6,5.3268702749853,48.6,9.05281932297588,48.6,6.17872281266245,48.6,6.60119488235628
48.7,9.4832880312254,48.7,5.40520696885202,48.7,9.16988195111187,48.7,6.19833782454539,48.7,6.58166467611806
48.83,9.46369436901526,48.83,5.38562279538534,48.83,9.28694398620139,48.83,6.19833782454539,48.83,6.62072449554803
48.94,9.64003614281363,48.94,5.48354306967228,48.94,9.32596466456457,48.94,6.23756725526481,48.94,6.65978490802447
49.04,9.69881712944407,49.04,5.4639588962056,49.04,9.46253733535891,49.04,6.2767972790307,49.04,6.75743593921556
49.16,9.77557645506721,49.16,5.52179932553766,49.16,9.55851045259144,49.16,6.33459596582491,49.16,6.75631992997705
49.23,9.85393816011773,49.23,5.54138026462391,49.23,9.59752527953016,49.23,6.39343128305332,49.23,6.81490087228894
49.34,9.8914848136146,49.34,5.57962006016001,49.34,9.63494827515948,49.34,6.31394142852221,49.34,6.83329931477473
49.44,10.0090079619173,49.44,5.57962006016001,49.44,9.71296385865045,49.44,6.41198409855139,49.44,6.93091750376541
49.55,10.1069433259857,49.55,5.63835317748198,49.55,9.81048363443947,49.55,6.45120116656306,49.55,6.91139374739715
49.7,10.2261538873136,49.7,5.69802659141691,49.7,9.87062551041009,49.7,6.45226660028173,49.7,6.95158914473485
49.77,10.2636396713547,49.77,5.73624111350132,49.77,9.90800341022849,49.77,6.49041823457473,49.77,7.04806004197496
49.87,10.2815297129021,49.87,5.73529407022684,49.87,9.96486934743406,49.87,6.54816256800439,49.87,7.10545801880451
49.95,10.3581542447214,49.95,5.81263171636345,49.95,10.1192052765364,49.95,6.5862857772006,49.95,7.10428511388229
50.06,10.4739096551648,50.06,5.87037641462809,50.06,10.1175351650862,50.06,6.58519875198568,50.06,7.12262609311137
50.19,10.5735416251966,50.19,5.85177420106707,50.19,10.2361894247914,50.19,6.60588783760657,50.19,7.16283645349853
50.3,10.5931217573718,50.3,5.91048792812251,50.3,10.3141804373744,50.3,6.5862857772006,50.3,7.22138838576967
50.41,10.6322832070318,50.41,5.93005917047432,50.41,10.3921702646476,50.41,6.68429607923043,50.41,7.22138838576967
50.52,10.730186238527,50.52,5.96920106252306,50.52,10.4896572524117,50.52,6.72350020004236,50.52,7.2799403180408
50.62,10.8868320371671,50.62,6.00834354722669,50.62,10.5871454254856,50.62,6.76270432085429,50.62,7.29945762879785
50.73,10.9064121693422,50.73,6.0279147895785,50.73,10.6261397464674,50.73,6.76270432085429,50.73,7.41656090068522
50.84,10.9829221069411,50.84,6.10519137640409,50.84,10.6438799112647,50.84,6.80078523672399,50.84,7.47387911240298
50.91,11.061230894443,50.91,6.10519137640409,50.91,10.7023629241988,50.91,6.87918053755868,50.91,7.49339320195012
51.01,11.1199639664621,51.01,6.14432740088578,51.01,10.8388228926736,51.01,6.82038406193266,51.01,7.47387911240298
51.11,11.1591189527702,51.11,6.18346342536746,51.11,10.9557889185418,51.11,6.91837818797602,51.11,7.55193547059157
51.25,11.2551482342628,51.25,6.2411368089934,51.25,10.9539810325817,51.25,6.87804535925215,51.25,7.58971101542025
51.36,11.3353146134852,51.36,6.26173488177377,51.36,11.0337658740826,51.36,6.87918053755868,51.36,7.64950532577025
51.47,11.3334440995225,51.47,6.2411368089934,51.47,11.1683825709662,51.47,6.95642772356854,51.47,7.64824303116203
51.57,11.3511458281521,51.57,6.33791427207277,51.57,11.2250036224093,51.57,6.95527998759699,51.57,7.68599645371626
51.68,11.5096118699646,51.68,6.33896013251371,51.68,11.3438026577819,51.68,7.01521449680584,51.68,7.74579737816383
51.78,11.5077129074386,51.78,6.43572204815533,51.78,11.3809060720451,51.78,7.07283413569731,51.78,7.76402705498086
51.86,11.5859970394434,51.86,6.47484456622682,51.86,11.4393697868393,51.86,7.01405706164715,51.86,7.80304235561315
51.95,11.6447095460854,51.95,6.53352923187635,51.95,11.4588584815861,51.95,7.07283413569731,51.95,7.84205765624545
52.05,11.6447095460854,52.05,6.51396767665984,52.05,11.5173210116572,52.05,7.09242649371403,52.05,7.84205765624545
52.16,11.7425641187298,52.16,6.55309078709287,52.16,11.6147609312219,52.16,7.11201885173075,52.16,7.9200876651485
52.3,11.7406270411781,52.3,6.5715681040477,52.3,11.6907833021705,52.3,7.09125651243826,52.3,7.91878115118196
52.4,11.7993298624841,52.4,6.66935915329433,52.4,11.6518147115226,52.4,7.13043476448027,52.4,7.89927671888797
52.52,11.8188982592712,52.52,6.68891748159642,52.52,11.8661455136688,52.52,7.16961301652228,52.52,7.93828558347596
52.59,11.8580338683178,52.59,6.64980082499224,52.59,11.8466600338172,52.59,7.2087912685643,52.59,7.93828558347596
52.72,11.8560780652718,52.72,6.72692385872815,52.72,11.9031505360989,52.72,7.20760228765244,52.72,7.95647749886152
52.78,11.8952072194925,52.78,6.74647896118028,52.78,11.961594965485,52.78,7.2467740778353,52.78,8.09298600619506
52.93,11.9147712044367,52.93,6.80514426853668,52.93,12.0395204765556,52.93,7.28594586801816,52.93,8.0734847908617
53.03,11.8952072194925,53.03,6.78558916608454,53.03,12.0395204765556,53.03,7.26635997292673,53.03,8.0734847908617
53.13,11.9714898277139,53.13,6.82357392584188,53.13,12.0570141207482,53.13,7.26516169456708,53.13,8.03315741257621
53.2,11.9323671261901,53.2,6.8431252114395,53.2,12.0180571984009,53.2,7.3630750207044,53.2,8.13064740974489
53.34,12.0106125292378,53.34,6.94088459977004,53.34,12.0959698589585,53.34,7.34349235547693,53.34,8.16964281654388
53.47,11.9714898277139,53.47,6.96043588536766,53.47,12.1738825195161,53.47,7.32390969024947,53.47,8.20863881541135
53.57,12.0281909313473,53.57,6.97883689942898,53.57,12.210825783258,53.57,7.32270212063855,53.57,8.16829580206464
53.67,12.0281909313473,53.67,6.97883689942898,53.67,12.3082002551252,53.67,7.401019274382,53.67,8.20728537125382
53.77,12.0281909313473,53.77,7.03748286125946,53.77,12.2303004408431,53.77,7.36186099349571,53.77,8.18779058665923
53.88,12.0066525514833,53.88,7.03632270912275,53.88,12.3645867330534,53.88,7.3410711578655,53.88,8.20593237333571
53.98,11.9675427489709,53.98,7.05586814040651,53.98,12.3840593639239,53.98,7.38022357525401,53.98,8.20593237333571
54.08,12.0086322138991,54.08,7.07658016914644,54.08,12.3082002551252,54.08,7.36186099349571,54.08,8.18779058665923
54.18,11.9284329464584,54.18,7.09495841110075,54.18,12.3645867330534,54.18,7.3410711578655,54.18,8.20593237333571
54.28,12.0242258115413,54.28,7.11333118640257,54.28,12.4209546230542,54.28,7.3985795119708,54.28,8.24355653762762
54.38,11.9284329464584,54.38,7.15359470495202,54.38,12.4424737052957,54.38,7.41937540076923,54.38,8.2254239441511
54.51,12.0262080446128,54.51,7.15359470495202,54.51,12.4424737052957,54.51,7.38022357525401,54.51,8.24491551496649
54.61,12.0242258115413,54.61,7.17195781546172,54.61,12.5182981787624,54.61,7.35943413969861,54.61,8.22406817953199
54.71,11.9851224553455,54.71,7.17195781546172,54.71,12.4793605197688,54.71,7.37900712172257,54.71,8.22406817953199
54.81,11.9851224553455,54.81,7.1915000251481,54.81,12.5182981787624,54.81,7.35943413969861,54.81,8.18509146334073
54.95,12.0222442318097,54.95,7.19031487352893,54.95,12.6524927487707,54.95,7.47563925953925,54.95,8.16425742246573
55.05,12.0026951841295,55.05,7.2293922601524,55.05,12.5551652351778,55.05,7.39736023387061,55.05,8.1837425689005
55.11,11.9635982721255,55.11,7.15123689522725,55.11,12.5551652351778,55.11,7.41692999028777,55.11,8.20322771533527
55.24,11.8834472519003,55.24,7.18913011246886,55.24,12.5725583202031,55.24,7.31787582166301,55.24,8.27980379814123
55.34,11.9811728351592,55.34,7.16959434279226,55.34,12.6893316190555,55.34,7.39614135757569,55.34,8.1434308388959
55.47,11.8248109554159,55.47,7.16959434279226,55.47,12.611483147541,55.47,7.33744235353635,55.47,8.1239489030636
55.58,11.9616270086105,55.58,7.11098703376247,55.58,12.7866430958196,55.58,7.39614135757569,55.58,8.1434308388959
55.67,11.9029918952875,55.67,7.15005857311566,55.67,12.76718009057,55.67,7.3570088854097,55.67,8.08498503139902
55.77,11.7661758420929,55.77,7.18913011246886,55.77,12.7087934411438,55.77,7.3570088854097,55.77,8.08498503139902
55.9,11.8052663120287,55.9,7.13052280343907,55.9,12.8644915673341,55.9,7.3570088854097,55.9,8.04602115973444
55.97,11.8424054876018,55.97,7.16841319051174,55.97,12.8429135953702,55.97,7.31667024080277,55.97,8.02521689454071
56.08,11.8228628811234,56.08,7.1488806392486,56.08,12.9596664734804,56.08,7.35579685758673,56.08,8.04469562082839
56.17,11.7818378564287,56.17,7.12817375952424,56.17,12.8407981426284,56.17,7.35458522904817,56.17,8.00441948300049
56.27,11.8424054876018,56.27,7.1488806392486,56.27,12.901289442942,56.27,7.29710693241078,56.27,8.00573816825304
56.37,11.7622996517315,56.37,7.16723242734414,56.37,12.9186209681302,56.37,7.31546505710308,56.37,8.02389500080088
56.5,11.7622996517315,56.5,7.1086444256143,56.5,12.996443793632,56.5,7.27634488515798,56.5,8.02389500080088
56.6,11.7056119741193,56.6,7.09028298545917,56.6,13.0180435040187,56.6,7.2775436240188,56.6,7.96678071567769
56.73,11.7232220595654,56.73,7.08911509170435,56.73,13.0742666191338,56.73,7.27634488515798,56.73,7.86809144978357
56.83,11.7212913576451,56.83,7.12699981786424,56.83,13.0915656197323,56.83,7.27514654113869,56.83,7.86679565079645
56.92,11.6841444673993,56.92,7.06958634918023,56.92,13.1910014487722,56.92,7.25678479918544,56.92,7.90704189399853
57.02,11.6626852142398,57.02,7.04889593868674,57.02,13.1304712154362,57.02,7.19691908268063,57.02,7.84732334042652
57.11,11.6236140577773,57.11,7.08794758263128,57.11,13.2277334308306,57.11,7.23603281190966,57.11,7.84732334042652
57.21,11.6217000755514,57.21,7.00868943971206,57.21,13.2061063055738,57.21,7.17618037017906,57.21,7.76815475857157
57.31,11.6217000755514,57.31,7.04773524447652,57.31,13.2450054949554,57.31,7.1566267258617,57.31,7.80709296656307
57.41,11.6412330281816,57.41,7.06725814685874,57.41,13.2839035019548,57.41,7.09796579290961,57.41,7.76815475857157
57.53,11.582635352673,57.53,7.04773524447652,57.53,13.342251694836,57.53,7.1566267258617,57.53,7.82656207055881
57.64,11.5435706297946,57.64,7.04773524447652,57.64,13.342251694836,57.64,7.09796579290961,57.64,7.70974744658433
57.76,11.5435706297946,57.76,6.98916653732983,57.76,13.4200488912169,57.76,7.09796579290961,57.76,7.69027834258858
57.85,11.46544236642,57.85,6.98916653732983,57.85,13.3033525054545,57.85,7.01975121564017,57.85,7.70974744658433
57.95,11.4440250032836,57.95,6.9684961796241,57.95,13.4372864496577,57.95,7.03814593587785,57.95,7.65008044738362
58.08,11.4635547400837,58.08,6.94897649141743,58.08,13.4761780526388,58.08,7.05769636095841,58.08,7.61114924112266
58.17,11.4811930752239,58.17,6.9478326269744,58.17,13.4739597517248,58.17,7.07608180714415,58.17,7.6293584804678
58.27,11.3854381572584,58.27,6.9294573943045,58.27,13.5734094244665,58.27,7.03814593587785,58.27,7.57221744376798
58.37,11.4421412131596,58.37,6.9088002677923,58.37,13.590617718924,58.37,6.97834577262618,58.37,7.60989637705005
58.49,11.4226158731239,58.49,6.88928379270304,58.49,13.6489467025236,58.49,6.97834577262618,58.49,7.57097098822168
58.59,11.3835640110597,58.59,6.9478326269744,58.59,13.6489467025236,58.59,6.9197041519154,58.59,7.53204559939331
58.68,11.3445121489954,58.68,6.9088002677923,58.68,13.6683893030592,58.68,6.86106253120461,58.68,7.55150829380749
58.81,11.3835640110597,58.81,6.86976731761377,58.81,13.7461608871944,58.81,6.93925135881899,58.81,7.47365751615075
58.9,11.3621683552453,58.9,6.88814994086092,58.9,13.6855791333671,58.9,6.91856529343088,58.9,7.45296799572904
59,11.3426450469301,59,6.90766320389043,59,13.841097883836,59,6.82084534450121,59,7.47242748693479
59.13,11.264555359064,59.13,6.77107095358305,59.13,13.8216573014034,59.13,6.80130135471527,59.13,7.41404901331753
59.19,11.2236627118039,59.19,6.80897684487496,59.19,13.8582564654338,59.19,6.81972294112051,59.19,7.39337270632732
59.26,11.2218161072116,59.26,6.7883497367782,59.26,13.8559763969137,59.26,6.85767602452583,59.26,7.39215629094293
59.38,11.2413318098633,59.38,6.76884289469737,59.38,13.8559763969137,59.38,6.7990633483465,59.38,7.37270320299193
59.5,11.2822206355751,59.5,6.8284863060999,59.5,14.0137484429297,59.5,6.83926371484757,59.5,7.35446071902617
59.63,11.1827835204988,59.63,6.71032236845488,59.63,13.9337095942847,59.63,6.77952578962005,59.63,7.29489144189265
59.72,11.1632666364377,59.72,6.74933605261654,59.72,13.9142765902943,59.72,6.74045126287188,59.72,7.33379761779465
59.85,11.1809439443316,59.85,6.7872330482214,59.85,13.931417488742,59.85,6.7393424536495,59.85,7.27424153894676
59.95,11.1614302708124,59.95,6.76772941503053,59.95,13.9508472959888,59.95,6.75887679843307,59.95,7.27424153894676
60.04,11.1242352311343,60.04,6.76884289469737,60.04,14.050309981046,60.04,6.70137614541899,60.04,7.21707909008865
60.13,11.1614302708124,60.13,6.7287221486488,60.13,14.0091378989445,60.13,6.66120507451521,60.13,7.2353417631395
60.23,11.0833791203807,60.23,6.68971488226706,60.23,14.0091378989445,60.23,6.66120507451521,60.23,7.1769920994286
60.35,11.0797338715333,60.35,6.70701189861351,60.35,13.9851069707992,60.35,6.65901424896858,60.35,7.1746316349986
60.44,11.0425364491371,60.44,6.72761545092698,60.44,14.084541391662,60.44,6.6405783496774,60.44,7.19525836200537
60.57,11.0833791203807,60.57,6.70921851545793,60.57,14.0479986946534,60.57,6.62213638494806,60.57,7.2353417631395
60.69,10.9467881306063,60.69,6.63120457330201,60.69,14.0285688874065,60.69,6.60260204016449,60.69,7.13809232362134
60.78,11.0212132855501,60.78,6.64852083329555,60.78,14.0239549854537,60.78,6.6004304887617,60.78,7.09685767113333
60.89,11.0407205411534,60.89,6.62902361471846,60.89,13.9851069707992,60.89,6.6004304887617,60.89,7.09685767113333
60.98,10.9840074190783,60.98,6.59111306394217,60.98,14.0456881685523,60.98,6.56245382208573,60.98,7.13691829527864
61.07,10.8846672196336,61.07,6.66801805187264,61.07,14.0045303877132,61.07,6.58090256869275,61.07,7.07741477058031
61.18,10.9023816152442,61.18,6.60843966046295,61.18,14.1187514696513,61.18,6.48219699285168,61.18,7.11513110271752
61.28,10.9236805500135,61.28,6.59002917756428,61.28,14.0045303877132,61.28,6.54184672855483,61.28,7.07741477058031
61.4,10.8633746994204,61.4,6.60843966046295,61.4,14.0410693957247,61.4,6.4626722835555,61.4,6.99848992858175
61.53,10.8633746994204,61.53,6.60843966046295,61.53,13.9633873217982,61.53,6.44314757425933,61.53,7.01793022265708
61.62,10.8048649160009,61.62,6.58894564761072,61.62,13.9633873217982,61.62,6.50172170214785,61.62,6.95960934043108
61.71,10.7853608677728,61.71,6.53046419937025,61.71,13.9633873217982,61.71,6.52124641144403,61.71,6.97904963450642
61.84,10.7853608677728,61.84,6.54995821222248,61.84,13.9439659178422,61.84,6.42362286496315,61.84,6.97904963450642
61.94,10.7658580001771,61.94,6.49147617366578,61.94,13.9051254711951,61.94,6.42362286496315,61.94,6.94016904635575
62.02,10.7640881731181,62.02,6.52939063958078,62.02,14.0193441174657,62.02,6.38352386993707,62.02,6.91959103589832
62.14,10.7250876697414,62.14,6.5098998313994,62.14,13.9416736334565,62.14,6.42256686909516,62.14,6.88071683942744
62.25,10.7250876697414,62.25,6.52939063958078,62.25,13.9028395718903,62.25,6.38352386993707,62.25,6.93902813413376
62.33,10.7233248348187,62.33,6.52831743270379,62.33,13.861725565203,62.33,6.42151122036586,62.33,6.86015198318063
62.45,10.6453366487436,62.45,6.50882982813981,62.45,13.9005544240317,62.45,6.34343805669765,62.45,6.87958588662675
62.56,10.7410570117272,62.56,6.4882757745662,62.56,13.8400369006477,62.56,6.36191066867508,62.56,6.82016376644896
62.68,10.6630816421166,62.68,6.44930697056709,62.68,13.7818037740466,62.68,6.30336541874607,62.68,6.80073305674211
62.77,10.6223482961287,62.77,6.48720967601631,62.77,13.779539264718,62.77,6.3413534566133,62.77,6.83847006196266
62.86,10.6223482961287,62.86,6.4482472750412,62.86,13.6630921482646,62.86,6.32184157985692,62.86,6.81904313487379
62.95,10.6028582467174,62.95,6.4482472750412,62.95,13.7019082470345,62.95,6.30232970310054,62.95,6.76076058382244
63.06,10.5443857387706,63.06,6.42876607455364,63.06,13.6630921482646,63.06,6.20477031931863,63.06,6.78018810083956
63.16,10.5088579132343,63.16,6.39190479087807,63.16,13.5899270941349,63.16,6.2458466021124,63.16,6.80185086296445
63.28,10.5071309028953,63.28,6.41033875659318,63.28,13.6265162231439,63.28,6.24482016881706,63.28,6.74244092762156
63.4,10.5656130201284,63.4,6.42982256856754,63.4,13.6459268719942,63.4,6.18627491888806,63.4,6.78130234703526
63.5,10.4079518533224,63.5,6.40928546399433,63.5,13.5854611305812,63.5,6.16574715573411,63.5,6.70247803277109
63.59,10.4664243612691,63.59,6.42876607455364,63.59,13.5272375723545,63.59,6.18525844256225,63.59,6.68305051575397
63.7,10.3316880913469,63.7,6.41033875659318,63.7,13.5488724476926,63.7,6.18627491888806,63.7,6.68414879850102
63.8,10.3884618039111,63.8,6.35084186253165,63.8,13.488422653441,63.8,6.16574715573411,63.8,6.66362299873686
63.92,10.3494805252321,63.92,6.35084186253165,63.92,13.4690140141278,63.92,6.16574715573411,63.92,6.70247803277109
64.01,10.3689717544998,64.01,6.27291765050967,64.01,13.449606554671,64.01,6.16574715573411,64.01,6.6053404476855
64.11,10.2893185434212,64.11,6.34979851739242,64.11,13.4473969922339,64.11,6.12571687628045,64.11,6.62367961773947
64.22,10.3265969178459,64.22,6.30980591377022,64.22,13.4063859880454,64.22,6.16372161461856,64.22,6.64201276309894
64.31,10.287628445106,64.31,6.29033111315142,64.31,13.2899771262295,64.31,6.08569974737852,64.31,6.62259162831474
64.44,10.287628445106,64.44,6.29033111315142,64.44,13.3675826409505,64.44,6.06619428056851,64.44,6.5643288136966
64.52,10.287628445106,64.52,6.25138210164825,64.52,13.2123716115085,64.52,6.06619428056851,64.52,6.54490767891241
64.64,10.2096914996262,64.64,6.29033111315142,64.64,13.3287792938556,64.64,6.06619428056851,64.64,6.54490767891241
64.74,10.2080147560723,64.74,6.23088383128055,64.74,13.1714047616604,64.74,6.00669123571737,64.74,6.50499691445006
64.82,10.1122709075109,64.82,6.29033111315142,64.82,13.1929693482266,64.82,6.10520521418853,64.82,6.5643288136966
64.94,10.1707230268863,64.94,6.23190730102945,64.94,13.1541671806006,64.94,6.06619428056851,64.94,6.58374935874635
65.04,10.1317545541464,65.04,6.19295769979184,65.04,13.1153638335056,65.04,6.02718334694849,65.04,6.48664427455983
65.16,10.1122709075109,65.16,6.27085690226706,65.16,13.0571594025977,65.16,5.98817241332847,65.16,6.50606540934402
65.25,10.1495722363224,65.25,6.26982703580257,65.25,13.1132098896998,65.25,5.94818444546971,65.25,6.52441485969003
65.36,10.1495722363224,65.36,6.26982703580257,65.36,13.0550150177393,65.36,5.9676867088856,65.36,6.46616102397012
65.45,10.1106101633974,65.45,6.21141222901954,65.45,13.0356171201775,65.45,5.94818444546971,65.45,6.42732513349018
65.57,10.0538187881355,65.57,6.17348289917304,65.57,13.0377583187847,65.57,5.87113961246842,65.57,6.40895973542305
65.7,10.0326860175473,65.7,6.17246902449753,65.7,13.0550150177393,65.7,5.90917991863794,65.7,6.38848924301024
65.78,9.97424349779738,65.78,6.23088383128055,65.78,12.9580243506552,65.78,5.92868218205383,65.78,6.40790718825021
65.87,9.9336500157714,65.87,6.13251926241941,65.87,12.9558965962463,65.87,5.86921148780094,65.87,6.38744022999825
66,9.9336500157714,66,6.15198766737298,66,12.878316567737,66,5.9082096099485,66,6.34861071651182
66.09,9.97260569098329,66.09,6.11305085746583,66.09,12.9171059924509,66.09,5.84971242672716,66.09,6.36802547325503
66.2,9.8946943405595,66.2,6.11305085746583,66.2,12.8201312515847,66.2,5.84971242672716,66.2,6.40685498674146
66.29,9.93201914234901,66.29,6.15097765462182,66.29,12.8180264853309,66.29,5.88774376007996,66.29,6.40580313072657
66.38,9.79569784263879,66.38,6.07311681983785,66.38,12.8568095417268,66.38,5.84875204051361,66.38,6.30874587370349
66.5,9.81517189299455,66.5,6.11204723722983,66.5,12.7598507218491,66.5,5.88774376007996,66.5,6.32815685355292
66.62,9.87035484872648,66.62,6.07112334640282,66.62,12.7362771949006,66.62,5.82734275345955,66.62,6.30667505608534
66.71,9.81517189299455,66.71,6.13151244592582,66.71,12.7016749583673,66.71,5.82925618073043,66.71,6.32815685355292
66.8,9.75674856303931,66.8,6.09258202853384,66.8,12.7210664865653,66.8,5.79026446116407,66.8,6.26992273511666
66.89,9.75514699564551,66.89,6.0721199195063,66.89,12.6608121133128,66.89,5.80880665050717,66.89,6.30771029493236
67.01,9.81356073542839,67.01,6.05265790601856,67.01,12.6608121133128,67.01,5.78931399096362,67.01,6.23007676337217
67.15,9.71620410955876,67.15,6.03319589253083,67.15,12.5250913403336,67.15,5.76982133142006,67.15,6.23007676337217
67.24,9.69673266651539,67.24,6.05265790601856,67.24,12.5638692091967,67.24,5.76982133142006,67.24,6.26889352915226
67.39,9.71620410955876,67.39,6.05265790601856,67.39,12.583257554281,67.39,5.76982133142006,67.39,6.24948514626221
67.48,9.73407770662271,67.48,6.01274747766844,67.48,12.5230356877257,67.48,5.71040599133317,67.48,6.2290542659549
67.57,9.67726122347202,67.57,5.99427245490258,67.57,12.4475367813019,67.57,5.73083601233295,67.57,6.21066838048212
67.63,9.65620530652792,67.63,5.97382983901186,67.63,12.4648801986791,67.63,5.72989545168757,67.63,6.19024387088969
67.76,9.65620530652792,67.76,5.99328865834015,67.76,12.3873371896149,67.76,5.71040599133317,67.76,6.19024387088969
67.84,9.61726881185528,67.84,6.01274747766844,67.84,12.4648801986791,67.84,5.71040599133317,67.84,6.2096490684223
67.95,9.57833231718263,67.95,5.95437101968357,67.95,12.3873371896149,67.95,5.61295868956119,67.95,6.2096490684223
68.1,9.57676055277219,68.1,5.97284955843441,68.1,12.3853044792129,68.1,5.6510101508656,68.1,6.15042405123048
68.19,9.49890093121368,68.19,5.93393830600012,68.19,12.2883933909499,68.19,5.61203762643523,68.19,6.15042405123048
68.28,9.47788059783363,68.28,5.9524171653703,68.28,12.3251360297888,68.28,5.66956606092114,68.28,6.14941495786686
68.4,9.45997082585752,68.4,5.91448267978297,68.4,12.1914823026868,68.4,5.67049641308079,68.4,6.11162002478933
68.49,9.51836598389176,68.49,5.91448267978297,68.49,12.2690114089588,68.49,5.6510101508656,68.49,6.11162002478933
68.6,9.45997082585752,68.6,5.93393830600012,68.6,12.230246266669,68.6,5.67049641308079,68.6,6.07281599834818
68.67,9.43895687969738,68.67,5.85515558365856,68.67,12.2476184655184,68.67,5.59163380041952,68.67,6.11061729796
68.81,9.40003375061827,68.81,5.89406045196611,68.81,12.2282396635079,68.81,5.55266825922586,68.81,6.11061729796
68.89,9.3984917503311,68.89,5.87364433539471,68.89,12.2068580956081,68.89,5.62967627582606,68.89,6.09021925237861
69.05,9.41795041683704,69.05,5.87364433539471,69.05,12.2262337186812,69.05,5.61019640674152,69.05,6.05142795691726
69.13,9.32065708430733,69.13,5.89309357853239,69.13,12.1099776244005,69.13,5.59071653765698,69.13,6.01263725041644
69.25,9.32065708430733,69.25,5.89309357853239,69.25,12.1293544253947,69.25,5.55175738844843,69.25,6.01263725041644
69.34,9.32065708430733,69.34,5.81529660598168,69.34,12.0906020013274,69.34,5.57123725753296,69.34,6.01263725041644
69.43,9.28174034025597,69.43,5.79584736284401,69.43,12.0906020013274,69.43,5.53227751936389,69.43,6.01263725041644
69.54,9.30119841780139,69.54,5.85419509225704,69.54,12.0906020013274,69.54,5.53227751936389,69.54,5.97384595495509
69.63,9.18444700772626,69.63,5.81529660598168,69.63,11.9937227080408,69.63,5.47383791211028,69.63,5.97384595495509
69.75,9.26076251979336,69.75,5.77545070325238,69.75,11.9723819336324,69.75,5.51189346827996,69.75,5.99225862062858
69.86,9.24130704480235,69.86,5.81434280958903,69.86,12.0498728920745,69.86,5.5508468164641,69.86,5.95347368752502
69.96,9.16198303023653,69.96,5.77450359752866,69.96,11.9123096218414,69.96,5.47204262253596,69.96,5.95249738813383
70.07,9.14403025871119,70.07,5.81434280958903,70.07,11.9530094884538,70.07,5.45346344600376,70.07,5.99225862062858
70.16,9.1425307457137,70.16,5.79394646177387,70.16,11.8929403535151,70.16,5.433095662241,70.16,5.97188667455006
70.28,9.16198303023653,70.28,5.77450359752866,70.28,11.9316800677024,70.28,5.47204262253596,70.28,5.91371881530136
70.37,9.10362617666804,70.37,5.7356184578056,70.37,11.9510493360287,70.37,5.45256914238848,70.37,5.91371881530136
70.47,9.06620835874713,70.47,5.75600523894798,70.47,11.9917555565388,70.47,5.41451009781962,70.47,5.87590382131792
70.57,9.0826844391378,70.57,5.7152383619497,70.57,11.8909903714929,70.57,5.43220484478531,70.57,5.91274919424622
70.68,9.0826844391378,70.68,5.69579868558189,70.68,11.9490898263819,70.68,5.43220484478531,70.68,5.8933630869227
70.81,9.08417389214521,70.81,5.67728986506997,70.81,11.8542018168626,70.81,5.45256914238848,70.81,5.85555095605267
70.92,8.96599045720339,70.92,5.7152383619497,70.92,11.8909903714929,70.92,5.39326427028479,70.92,5.85459087227565
71.01,8.96599045720339,71.01,5.7152383619497,71.01,11.9103564640087,71.01,5.37379398303453,71.01,5.8158186576286
71.13,8.96746077377557,71.13,5.69673272931518,71.13,11.9316800677024,71.13,5.39414870194603,71.13,5.89432952888513
71.22,8.96599045720339,71.22,5.67635900921408,71.22,11.9103564640087,71.22,5.39326427028479,71.22,5.87397697959917
71.29,8.88819466547071,71.29,5.67635900921408,71.29,11.9103564640087,71.29,5.39326427028479,71.29,5.85459087227565
71.39,8.86874557036984,71.39,5.7152383619497,71.39,11.9490898263819,71.39,5.35432369578427,71.39,5.83520476495213
71.53,8.90764376057159,71.53,5.61804056878147,71.53,11.8716242789771,71.53,5.41273455753505,71.53,5.77704703165237
71.65,8.86729167765339,71.65,5.67542845855684,71.65,11.9084039465556,71.65,5.37291303320124,71.65,5.79548231546076
71.74,8.86729167765339,71.74,5.65599196902122,71.74,11.9858579718388,71.74,5.35344593780135,71.74,5.83424817400705
71.83,8.86729167765339,71.83,5.61711957852429,71.83,11.9664938769437,71.83,5.41184722400102,71.83,5.75671704548879
71.94,8.82839986420413,71.94,5.61711957852429,71.94,11.9471309591972,71.94,5.37291303320124,71.94,5.75671704548879
72.04,8.78662777776271,72.04,5.59584838460028,72.04,12.0012860417028,72.04,5.3711519997587,72.04,5.73545363961249
72.11,8.78662777776271,72.11,5.57641826559548,72.11,11.9819294703731,72.11,5.410073429434,72.11,5.71607706331519
72.23,8.71029709487415,72.23,5.61619889018164,72.23,12.061333552178,72.23,5.39149627675249,72.23,5.73639372380191
72.32,8.74918253366131,72.32,5.61619889018164,72.32,12.0419726312044,72.32,5.41096018134834,72.32,5.73639372380191
72.47,8.71029709487415,72.47,5.59676558643352,72.47,12.1387737052056,72.47,5.37203237215663,72.47,5.71701397153733
72.58,8.69085437548057,72.58,5.63563219392976,72.58,12.1194139611877,72.58,5.35256846756077,72.58,5.69763421927276
72.67,8.6339419741065,72.67,5.53937362038181,72.67,12.1407636681081,72.67,5.41184722400102,72.67,5.69856825766936
72.76,8.64913420826968,72.76,5.55607761273084,72.76,12.1928571113923,72.76,5.42864449423981,72.76,5.69576706075423
72.88,8.6311121012864,72.88,5.53755802758588,72.88,12.1754987139583,72.88,5.410073429434,72.88,5.67732391072057
72.96,8.6311121012864,72.96,5.61527850360507,72.96,12.2142118566176,72.96,5.39061271459635,72.96,5.67732391072057
73.07,8.57279350196476,73.07,5.61527850360507,73.07,12.2335684279473,73.07,5.410073429434,73.07,5.65794733442326
73.19,8.55335396885755,73.19,5.49869837795769,73.19,12.1754987139583,73.19,5.4489948591093,73.19,5.69670048701788
73.28,8.53391502413173,73.28,5.53755802758588,73.28,12.2722827473695,73.28,5.46845557394695,73.28,5.67732391072057
73.4,8.59223303507197,73.4,5.53755802758588,73.4,12.2722827473695,73.4,5.42953414427165,73.4,5.67732391072057
73.49,8.49364401363451,73.49,5.5366506774257,73.49,12.2509184870055,73.49,5.44810202036456,73.49,5.6763936593834
73.63,8.43533497003945,73.63,5.55607761273084,73.63,12.2702718866866,73.63,5.42864449423981,73.63,5.6763936593834
73.72,8.5116856890943,73.72,5.53574362456243,73.72,12.2295600503497,73.72,5.40830079724873,73.72,5.61735303039292
73.81,8.43533497003945,73.81,5.47837045979527,73.81,12.2702718866866,73.81,5.40918696811507,73.81,5.59890005390008
73.92,8.47420766576949,73.92,5.49779739510041,73.92,12.2896252863677,73.92,5.46755954648931,73.92,5.63764685664174
74.03,8.3964628625944,74.03,5.47837045979527,74.03,12.347686661981,74.03,5.42864449423981,74.03,5.63764685664174
74.1,8.37565413161753,74.1,5.51631987191379,74.1,12.306963319391,74.1,5.42775513570537,74.1,5.55924234793903
74.24,8.39508729528401,74.24,5.47747295480513,74.24,12.2489114557986,74.24,5.38884645879209,74.24,5.57861257542366
74.33,8.33542223707665,74.33,5.43773460176838,74.33,12.1888627274082,74.33,5.42686606852508,74.33,5.61643290704642
74.45,8.31735464061807,74.45,5.45804920215649,74.45,12.210209821278,74.45,5.40830079724873,74.45,5.59798280290829
74.57,8.31599225656556,74.57,5.43773460176838,74.57,12.2469050820958,74.57,5.44631722035789,74.57,5.57769879777003
74.64,8.27713288363564,74.64,5.47657574383792,74.64,12.2082097869092,74.64,5.31015915752818,74.64,5.55833174313183
74.77,8.25770290312455,74.77,5.43773460176838,74.77,12.1695156679072,74.77,5.36851261302663,74.77,5.53896468849364
74.88,8.29656227605446,74.88,5.45715517280315,74.88,12.1308203727206,74.88,5.36851261302663,74.88,5.55833174313183
74.96,8.2174969147617,74.96,5.35917507196694,74.96,12.1481775587477,74.96,5.40652932630302,74.96,5.47996649326211
75.06,8.25635051155836,75.06,5.37859246242997,75.06,12.0514569279132,75.06,5.30928949503923,75.06,5.49933037609313
75.17,8.21884294210236,75.17,5.39889345969884,75.17,12.0340827228465,75.17,5.40741491669226,75.17,5.50023116730952
75.29,8.1592165195667,75.29,5.37859246242997,75.29,12.0127679699843,75.29,5.32873746129199,75.29,5.49933037609313
75.38,8.1592165195667,75.38,5.41742665536008,75.38,11.9740801880473,75.38,5.36763339379751,75.38,5.47996649326211
75.49,8.10093671236766,75.49,5.35917507196694,75.49,11.9740801880473,75.49,5.34818542754475,75.49,5.44123872760008
75.61,8.09961021216914,75.61,5.35829752569677,75.61,11.9140961278614,75.61,5.32786489907465,75.61,5.45970845575443
75.72,8.09961021216914,75.72,5.31946910383095,75.72,11.9914601975554,75.72,5.26953055392679,75.72,5.44034774369185
75.81,8.04133936018606,75.81,5.33888331476386,75.81,11.856072781641,75.81,5.25008577221083,75.81,5.42098703162927
75.9,8.04133936018606,75.9,5.33888331476386,75.9,11.8173901588943,75.9,5.3084201173587,75.9,5.38226560750411
75.99,8.04133936018606,75.99,5.35829752569677,75.99,11.8754135051147,75.99,5.23064099049488,75.99,5.42098703162927
76.13,7.98437650997362,76.13,5.28150551011481,76.13,11.8193255323236,76.13,5.25094559628096,76.13,5.40251096193805
76.23,8.02191633075804,76.23,5.33888331476386,76.23,11.7980494354207,76.23,5.28897533564274,76.23,5.40162631956669
76.3,7.99987281075775,76.3,5.27891187506319,76.3,11.736182571083,76.3,5.22892855278314,76.3,5.39985790368207
76.45,7.92220377751485,76.45,5.25950402006773,76.45,11.736182571083,76.45,5.22892855278314,76.45,5.39985790368207
76.54,7.90149368839956,76.54,5.2780478960329,76.54,11.6569356715426,76.54,5.24750798868929,76.54,5.32156930594583
76.63,7.90278710691133,76.63,5.22068889778401,76.63,11.6201738706844,76.63,5.19005172124301,76.63,5.38050353004216
76.74,7.90408094893931,76.74,5.27977613699427,76.74,11.6220763222022,76.74,5.19090143501531,76.74,5.38138442452973
76.84,7.82511807366843,76.84,5.16246533279762,76.84,11.6201738706844,76.84,5.19005172124301,76.84,5.34179478276235
76.95,7.88207960803619,76.95,5.23923912646969,76.95,11.5796095874801,76.95,5.20863751996937,76.95,5.36027171791512
77.06,7.90278710691133,77.06,5.25950402006773,77.06,11.5815050874945,77.06,5.13173647393281,77.06,5.32244040912245
77.18,7.86395259028988,77.18,5.22068889778401,77.18,11.4654963870958,77.18,5.11229805816274,77.18,5.28373166184264
77.29,7.82383736694606,77.29,5.18102509070834,77.29,11.5022835034177,77.29,5.18920228560942,77.29,5.30221809996119
77.38,7.78628355704698,77.38,5.22068889778401,77.38,11.4074920368965,77.38,5.11229805816274,77.38,5.30308603548255
77.5,7.7267675527402,77.5,5.16162041212122,77.5,11.4442886465654,77.5,5.13089658252954,77.5,5.30221809996119
77.59,7.7837352724595,77.59,5.21898027762437,77.59,11.4424159107371,77.59,5.13005696600483,77.59,5.28200240913053
77.67,7.74364688780479,77.67,5.17932972909489,77.67,11.3825679082374,77.67,5.10978874956089,77.67,5.22310417323323
77.77,7.66852531165008,77.77,5.12281164255801,77.77,11.3089677056507,77.77,5.1503318168895,77.77,5.26351627560292
77.91,7.64786012329653,77.91,5.16077576796934,77.91,11.2877878747612,77.91,5.07176080403166,77.91,5.24330691791321
78,7.62844921984043,78,5.141374264751,78,11.3264451775126,78,5.14948901999588,78,5.24330691791321
78.11,7.6272011096932,78.11,5.12113532984774,78.11,11.266616149282,78.11,5.07093100023519,78.11,5.20375929944949
78.23,7.60903831638433,78.23,5.08317034261084,78.23,11.2491317470395,78.23,5.0134646420585,78.23,5.18526279981494
78.35,7.54957019933966,78.35,5.10173700095912,78.35,11.1893153682576,78.35,5.07093100023519,78.35,5.22310417323323
78.43,7.55080560601603,78.43,5.12197334904752,78.43,11.1524890776757,78.43,5.03289669604955,78.43,5.20461083918103
78.52,7.55080560601603,78.52,5.12197334904752,78.52,11.1718183165663,78.52,5.05232875004061,78.52,5.20461083918103
78.62,7.4925734831626,78.62,5.0637688393925,78.62,11.1331610138149,78.62,5.0134646420585,78.62,5.12721868171667
78.73,7.51198438661869,78.73,5.0637688393925,78.73,11.113832949954,78.73,5.03289669604955,78.73,5.18526279981494
78.84,7.47193987640484,78.84,5.04354201429324,78.84,11.0540387077555,78.84,5.01264437624664,78.84,5.10703493053083
78.96,7.45131302037726,78.96,5.10090242922659,78.96,10.9942640285349,78.96,4.99239868242764,78.96,5.10619949213225
79.04,7.47193987640484,79.04,5.06294034318187,79.04,11.0733636093022,79.04,5.03207325090949,79.04,5.12637980431456
79.16,7.41371669363968,79.16,5.04354201429324,79.16,10.9960628282778,79.16,4.99321550158379,79.16,5.18441442566576
79.25,7.39309994942071,79.25,5.02332180683674,79.25,10.8976541525534,79.25,4.97297357337545,79.25,5.08685778289518
79.37,7.4125039148578,79.37,5.0427169624342,79.37,10.9362976330879,79.37,4.97297357337545,79.37,5.08685778289518
79.46,7.39309994942071,79.46,5.02332180683674,79.46,10.8783312376409,79.46,4.97297357337545,79.46,5.08685778289518
79.52,7.33368660414592,79.52,4.98371681765812,79.52,10.8572334081526,79.52,4.91389234757515,79.52,5.04734868984395
79.66,7.31428522517631,79.66,4.98371681765812,79.66,10.8572334081526,79.66,4.89446982844866,79.66,5.02801014411837
79.77,7.29607718562207,79.77,5.02332180683674,79.77,10.8203648421938,79.77,4.91469619058964,79.77,5.10619949213225
79.89,7.29607718562207,79.89,4.92634661617208,79.89,10.7430767064796,79.89,4.97297357337545,79.89,5.06751607365812
79.98,7.31428522517631,79.98,4.92554086762511,79.98,10.7606393335901,79.98,4.89446982844866,79.98,5.00867159839279
80.1,7.27548305446366,80.1,4.96432483431379,80.1,10.7606393335901,80.1,4.91389234757515,80.1,5.02801014411837
80.19,7.21727891755482,80.19,4.94493285096945,80.19,10.7606393335901,80.19,4.8362022710692,80.19,5.02801014411837
80.31,7.2742932780034,80.31,4.94412419473871,80.31,10.6816155897534,80.31,4.85483073871732,80.31,4.98851772270003
80.39,7.23549686556833,80.39,4.94412419473871,80.39,10.6623001689433,80.39,4.89366942455194,80.39,5.06585866856452
80.49,7.2537088561103,80.49,4.92393016099737,80.49,10.6605568235919,80.49,4.87345311464941,80.49,4.96836985051414
80.59,7.13850642161121,80.59,4.88595805191775,80.59,10.5657218906318,80.59,4.79657300353067,80.59,5.027187902067
80.72,7.13850642161121,80.72,4.90534657048122,80.72,10.6043527322519,80.72,4.87425008163463,80.72,4.98851772270003
80.83,7.09854916712102,80.83,4.88515917061429,80.83,10.5060563744025,80.83,4.83462077915584,80.83,4.94903762870803
80.95,7.13850642161121,80.95,4.92473538260996,80.95,10.5464052955606,80.95,4.83541139580002,80.95,4.98851772270003
81.05,7.08031180295861,81.05,4.84718042766026,81.05,10.4884590331303,81.05,4.79657300353067,81.05,4.9498469562025
81.13,7.05975909811506,81.13,4.86577352866412,81.13,10.5060563744025,81.13,4.85403694690262,81.13,4.96836985051414
81.21,7.07915413261804,81.21,4.84638788671394,81.21,10.4674306750706,81.21,4.81520490492633,81.21,4.98770207232025
81.33,7.03921311313576,81.33,4.8843605505112,81.33,10.4077909814229,81.33,4.81441772086471,81.33,4.89024138163802
81.41,7.02096961614365,81.41,4.88515917061429,81.41,10.4481184124392,81.41,4.79578873717954,81.41,4.91037318509581
81.55,7.04036406361208,81.55,4.78823125438069,81.55,10.351555925213,81.55,4.79578873717954,81.55,4.92970540690192
81.68,6.96278451263471,81.68,4.80761689633086,81.68,10.3322424885125,81.68,4.67929173069883,81.68,4.92970540690192
81.77,7.01982183624891,81.77,4.86497807770308,81.77,10.3305533856045,81.77,4.71735275279266,81.77,4.92889950443226
81.88,6.94338947813173,81.88,4.76884590594779,81.88,10.2936179632497,81.88,4.75695640168597,81.88,4.87170874148358
81.98,6.9228625171217,81.98,4.80683095274801,81.98,10.2726248952714,81.98,4.75617874002148,81.98,4.8709123202409
82.06,6.94225438094714,82.06,4.84559560489496,82.06,10.2533157897861,82.06,4.73676574640707,82.06,4.8709123202409
82.17,6.90347065329626,82.17,4.76806630060106,82.17,10.1760781939676,82.17,4.71735275279266,82.17,4.8709123202409
82.27,6.8840793764094,82.27,4.78744847993989,82.27,10.0988405981492,82.27,4.75617874002148,82.27,4.8709123202409
82.38,6.86356546493562,82.38,4.78666596139135,82.38,10.1551089431589,82.38,4.69717187101886,82.38,4.87011615935168
82.5,6.88295415912003,82.5,4.74790764540853,82.5,10.116495870731,82.5,4.69717187101886,82.5,4.83146435530913
82.62,6.88295415912003,82.62,4.74790764540853,82.62,10.1358018201023,82.62,4.75540133257787,82.62,4.83146435530913
82.71,6.84417677075121,82.71,4.7672869501106,82.71,10.0778827983031,82.71,4.67776205049919,82.71,4.7928128446879
82.83,6.84417677075121,82.83,4.74790764540853,82.83,10.0199649501892,82.83,4.67776205049919,82.83,4.77348694266662
82.92,6.84529564875852,82.92,4.69053670283786,82.92,10.0795303187867,82.92,4.63970077833503,82.92,4.7742673067246
83.01,6.78490168171192,83.01,4.70837973483028,83.01,9.94111390930371,83.01,4.59937099153402,83.01,4.8499975150102
83.12,6.70845649830298,83.12,4.70914932942571,83.12,9.94273880533335,83.12,4.61953258894018,83.12,4.77348694266662
83.22,6.74502890827747,83.22,4.66886444854443,83.22,9.93948954428585,83.22,4.65682989264946,83.22,4.79124656598048
83.33,6.72564655026763,83.33,4.72698307000688,83.33,9.93948954428585,83.33,4.61802293776732,83.33,4.77192697961346
83.42,6.68797464056176,83.42,4.68900359719876,83.42,9.92181111501483,83.42,4.59937099153402,83.42,4.73406134631509
83.54,6.64811770487913,83.54,4.68823742014039,83.54,9.84299016979647,83.54,4.59861946032626,83.54,4.71396822051239
83.63,6.68797464056176,83.63,4.66962745956724,83.63,9.82529538333019,83.63,4.63818428845814,83.63,4.73406134631509
83.75,6.70626419225779,83.75,4.64949147694847,83.75,9.76579043554462,83.75,4.57921598288519,83.75,4.71396822051239
83.85,6.62873534686929,83.85,4.61074582708198,83.85,9.80439030267055,83.85,4.61802293776732,83.85,4.71396822051239
83.92,6.62873534686929,83.92,4.66886444854443,83.92,9.76579043554462,83.92,4.57921598288519,83.92,4.69464863414537
84.04,6.58997063084961,84.04,4.59137285548602,84.04,9.74649020865623,84.04,4.55981250544412,84.04,4.71396822051239
84.14,6.6276523971312,84.14,4.60999256032376,84.14,9.74489790507697,84.14,4.57846786722061,84.14,4.67456552320783
84.26,6.57058827283977,84.26,4.63011879867794,84.26,9.59209015350166,84.26,4.57921598288519,84.26,4.73328780687942
84.37,6.60935298885945,84.37,4.64949147694847,84.37,9.66929047440438,84.37,4.50160236644635,84.37,4.69464863414537
84.47,6.51244178546112,84.47,4.61074582708198,84.47,9.63069060727845,84.47,4.54040902800305,84.47,4.61737058200272
84.59,6.53075643975477,84.59,4.59062275372888,84.59,9.62911722211144,84.59,4.52026723812955,84.59,4.63593266303264
84.68,6.58889401418063,84.68,4.59062275372888,84.68,9.62911722211144,84.68,4.53966725230823,84.68,4.69388166001792
84.79,6.5103142317906,84.79,4.60923953965072,84.79,9.5503692506729,84.79,4.48073459665343,84.79,4.67380195484403
84.88,6.5103142317906,84.88,4.58987289702294,84.88,9.51178199376165,84.88,4.48073459665343,84.88,4.65448868000473
85,6.43386106893337,85,4.5712532404115,85,9.53263302636265,85,4.50086693067336,85,4.59729980285745
85.07,6.41343410191456,85.07,4.57050654762477,85.07,9.41531355825392,85.07,4.46133745814652,85.07,4.61586213032614
85.18,6.5103142317906,85.18,4.55113990499699,85.18,9.4731947368504,85.18,4.51952887366726,85.18,4.61586213032614
85.31,6.39405866239857,85.31,4.51240691297103,85.31,9.45390081516517,85.31,4.46133745814652,85.31,4.59654885548684
85.43,6.43281012788977,85.43,4.55113990499699,85.43,9.35743237965744,85.43,4.50013173516035,85.43,4.61586213032614
85.52,6.37468263642336,85.52,4.55113990499699,85.52,9.39602022302791,85.52,4.46133745814652,85.52,4.59654885548684
85.63,6.35530661044815,85.63,4.55113990499699,85.63,9.33813904443143,85.63,4.4419403196396,85.63,4.55792230580825
85.72,6.33593058447295,85.72,4.51240691297103,85.72,9.37672630134268,85.72,4.46133745814652,85.72,4.57723558064754
85.84,6.35426867044972,85.84,4.51166995283499,85.84,9.31732318168418,85.84,4.38303295623316,85.84,4.57648803278201
85.93,6.31449167327289,85.93,4.51093323337829,85.93,9.35437639259681,85.93,4.45988045701714,85.93,4.55643376161954
86.03,6.33386137134934,86.03,4.49157291558481,86.03,9.25794004839776,86.03,4.40170804587769,86.03,4.55643376161954
86.15,6.29615008592241,86.15,4.49230647314084,86.15,9.22087050126962,86.15,4.42182089741863,86.15,4.51855796409887
86.25,6.25740494926765,86.25,4.51166995283499,86.25,9.18228954637649,86.25,4.4024269268259,86.25,4.51855796409887
86.36,6.27575227711997,86.36,4.45285257313169,86.36,9.23865242779734,86.36,4.38231724216454,86.36,4.51782011988527
86.44,6.21865922624945,86.44,4.45357980693426,86.44,9.14370859148335,86.44,4.4024269268259,86.44,4.51855796409887
86.57,6.23803208775855,86.57,4.47294299344669,86.57,9.16299936211164,86.57,4.36363898564042,86.57,4.51855796409887
86.69,6.2563831653112,86.69,4.41413193754472,86.69,9.1422154973306,86.69,4.38231724216454,86.69,4.53712708731933
86.78,6.23701346723475,86.78,4.47221259779133,86.78,9.10364084239744,86.78,4.38231724216454,86.78,4.49851315245121
86.87,6.19827407108183,86.87,4.49157291558481,86.87,9.04577856686386,86.87,4.30475402731193,86.87,4.47920618501715
86.94,6.17890437300538,86.94,4.39477161975124,86.94,9.02649153253112,86.94,4.32414483102508,86.94,4.47920618501715
87.06,6.15953467492892,87.06,4.41413193754472,87.06,9.0072039119307,87.06,4.36292643845139,87.06,4.47920618501715
87.18,6.1004300157563,87.18,4.45212557679322,87.18,8.98644887642557,87.18,4.38160176179847,87.18,4.43986725549595
87.27,6.10142616696724,87.27,4.41413193754472,87.27,8.96862925699754,87.27,4.36292643845139,87.27,4.45989921758309
87.38,6.10142616696724,87.38,4.41413193754472,87.38,8.8721923265308,87.38,4.36292643845139,87.38,4.44059225014903
87.51,6.08205646889078,87.51,4.41413193754472,87.51,8.91076698146396,87.51,4.30475402731193,87.51,4.45989921758309
87.6,6.1004300157563,87.6,4.37469724217812,87.6,8.90931216236495,87.6,4.28466357246023,87.6,4.43986725549595
87.72,6.08106348007953,87.72,4.37469724217812,87.72,8.89002827693577,87.72,4.30405121032788,87.72,4.42056344021984
87.81,6.1004300157563,87.81,4.37469724217812,87.81,8.83217544830432,87.81,4.28466357246023,87.81,4.3819561027536
87.91,6.04233040872599,87.91,4.35534008525285,87.91,8.79360709127401,87.91,4.30405121032788,87.91,4.42056344021984
88,6.02296387304922,88,4.29726890756302,88,8.81289097670318,88,4.26527593459259,88,4.3819561027536
88.11,6.02198069252799,88.11,4.33527512830663,88.11,8.77289031105066,88.11,4.26457967668619,88.11,4.36194013398623
88.21,6.00359792354442,88.21,4.3166260644883,88.21,8.79360709127401,88.21,4.28466357246023,88.21,4.40125991802971
88.33,5.9832545299852,88.33,4.29656742716675,88.33,8.71504692623713,88.33,4.26457967668619,88.33,4.36194013398623
88.46,5.96389115567566,88.46,4.29656742716675,88.46,8.73432824986707,88.46,4.16765760444573,88.46,4.36194013398623
88.55,5.94452778136613,88.55,4.29656742716675,88.55,8.63792280386996,88.55,4.20642655055717,88.55,4.3812407981335
88.64,5.94549831651411,88.64,4.33598292832758,88.64,8.65861754858193,88.64,4.24588829672494,88.64,4.34334847220138
88.73,5.94452778136613,88.73,4.25785972602687,88.73,8.65720412749989,88.73,4.22581102361289,88.73,4.32333880569169
88.82,5.90580103274705,88.82,4.29656742716675,88.82,8.59936074268637,88.82,4.20642655055717,88.82,4.36194013398623
88.93,5.92516440705659,88.93,4.27721343007774,88.93,8.58007941905643,88.93,4.24519520363047,88.93,4.34263946983896
89.07,5.90580103274705,89.07,4.25785972602687,89.07,8.54151735787284,89.07,4.18704207750145,89.07,4.30403814154442
89.19,5.86611729310777,89.19,4.31521701403473,89.19,8.5015675122439,89.19,4.20574001121482,89.19,4.34193069891194
89.28,5.82739686515928,89.28,4.27651533746634,89.28,8.5015675122439,89.28,4.1669773926611,89.28,4.32263318486491
89.37,5.80803665118503,89.37,4.25716479217245,89.37,8.4822893355576,89.37,4.14759608338424,89.37,4.34193069891194
89.47,5.74995659524291,89.47,4.21846311560406,89.47,8.46301174485192,89.47,4.1669773926611,89.47,4.24544342166708
89.59,5.82739686515928,89.59,4.23781395388826,89.59,8.4822893355576,89.59,4.20574001121482,89.59,4.32263318486491
89.68,5.80898474727565,89.68,4.23850572893786,89.68,8.36798778950855,89.68,4.18704207750145,89.68,4.34263946983896
89.77,5.82739686515928,89.77,4.21846311560406,89.77,8.36662203338166,89.77,4.12821477410737,89.77,4.26474093571412
89.89,5.76931680921716,89.89,4.25716479217245,89.89,8.38589962408733,89.89,4.1669773926611,89.89,4.26474093571412
90.02,5.78773180985484,90.02,4.19842704359314,90.02,8.36525672299762,90.02,4.14691925634713,90.02,4.26404499234994
90.12,5.73059638126866,90.12,4.16041089374178,90.12,8.32806626598968,90.12,4.1669773926611,90.12,4.24544342166708
90.21,5.69094712238783,90.21,4.19842704359314,90.21,8.34598169222788,90.21,4.14691925634713,90.21,4.24475062737504
90.33,5.71030417705824,90.33,4.17907965602532,90.33,8.26888274091891,90.33,4.08878481675542,90.33,4.20616189742524
90.43,5.71030417705824,90.43,4.19842704359314,90.43,8.24960771014917,90.43,4.08878481675542,90.43,4.20616189742524
90.53,5.71030417705824,90.53,4.19842704359314,90.53,8.23033326526443,90.53,4.12754110981656,90.53,4.24475062737504
90.64,5.6900185945493,90.64,4.19774203347019,90.64,8.19044722837816,90.64,4.1268676653542,90.64,4.26334927608426
90.71,5.61351948959123,90.71,4.17907965602532,90.71,8.17250875884021,90.71,4.05002852369428,90.71,4.20616189742524
90.83,5.63287654426163,90.83,4.14038429500467,90.83,8.21105823449469,90.83,4.08878481675542,90.83,4.18686753245034
90.92,5.61260359474875,90.92,4.178397802598,90.92,8.09408897055824,90.92,4.06874271090518,90.92,4.18618440836282
91.06,5.67066469815181,91.06,4.19774203347019,91.06,8.13263215652833,91.06,4.1268676653542,91.06,4.18618440836282
91.15,5.61260359474875,91.15,4.10102000042514,91.15,8.05554578458816,91.15,4.04936772608884,91.15,4.12831105046644
91.24,5.61351948959123,91.24,4.15973197551499,91.24,8.09540980753125,91.24,4.05002852369428,91.24,4.16757316747544
91.34,5.57207753550394,91.34,4.15769654965844,91.34,7.93732555260243,91.34,4.06741544203847,91.34,4.16553390479359
91.46,5.55454190555627,91.46,4.13970875506422,91.46,7.95918752676823,91.46,4.08811769572152,91.46,4.1476022673968
91.55,5.57389580195377,91.55,4.13970875506422,91.55,8.0362738987084,91.55,4.04936772608884,91.55,4.12831105046644
91.65,5.53428504210998,91.65,4.08100962421508,91.65,7.93862038548214,91.65,4.04870714407806,91.65,4.14692566017537
91.78,5.57389580195377,91.78,4.15905327883111,91.78,7.93991564088848,91.78,4.04936772608884,91.78,4.1476022673968
91.87,5.51583469855071,91.87,4.10102000042514,91.87,7.88210056903865,91.87,4.04936772608884,91.87,4.08972861660572
92,5.45688267118379,92,4.10035099226847,92,7.90008348714435,92,4.0293353199444,92,4.10834952034953
92.1,5.43664504050504,92.1,4.09968220234965,92.1,7.86026432708925,92.1,4.00930944859238,92.1,4.14624927367069
92.19,5.45688267118379,92.19,4.13903343552832,92.19,7.78447220643712,92.19,4.00996349581074,92.19,4.12763759026245
92.27,5.41729745756258,92.27,4.00299172110139,92.27,7.82173371433266,92.27,3.98994078411034,92.27,4.06910957798243
92.41,5.43575843824794,92.41,4.09901363056192,92.41,7.85898248359168,92.41,3.96992460297475,92.41,4.08772777090288
92.47,5.43664504050504,92.47,4.09968220234965,92.47,7.8024681151552,92.47,3.98994078411034,92.47,4.06910957798243
92.6,5.43575843824794,92.6,4.060343803885,92.6,7.70488458118693,92.6,3.96992460297475,92.6,4.08772777090288
92.67,5.41729745756258,92.67,3.98365350773207,92.67,7.70614129046456,92.67,3.95120345514628,92.67,4.04982465406037
92.79,5.37860287727598,92.79,4.08034398898033,92.79,7.68687627688543,92.79,3.98994078411034,92.79,4.0883945019045
92.92,5.39794987462012,92.92,4.06100606841018,92.92,7.66761067770797,92.92,3.91246641898138,92.92,4.06910957798243
93.02,5.37860287727598,93.02,4.06100606841018,93.02,7.68687627688543,93.02,4.00930944859238,93.02,4.04982465406037
93.11,5.3205601284486,93.11,4.04166785504086,93.11,7.60981446577392,93.11,3.95120345514628,93.11,4.03054002293746
93.23,5.33990771139106,93.23,4.00299172110139,93.23,7.60981446577392,93.23,3.97057211962831,93.23,4.04982465406037
93.34,5.33903688495411,93.34,4.060343803885,93.34,7.57004913614632,93.34,3.91182837814332,93.34,3.95275561095318
93.43,5.33990771139106,93.43,4.02232964167154,93.43,7.57128385301733,93.43,3.89309775449934,93.43,4.0883945019045
93.53,5.31969245719478,93.53,4.0023389174939,93.53,7.51226234955669,93.53,3.91182837814332,93.53,4.02988272678239
93.61,5.28100360167612,93.61,3.98300385777973,93.61,7.51226234955669,93.61,3.9505590971138,93.61,3.99131916886778
93.75,5.24231533166027,93.75,3.98300385777973,93.75,7.49300047769536,93.75,3.87309736642142,93.75,3.99131916886778
93.84,5.28100360167612,93.84,4.0023389174939,93.84,7.51226234955669,93.84,3.91182837814332,93.84,4.02988272678239
93.97,5.20277801266923,93.97,3.96302251259384,93.97,7.49177872643534,93.97,3.89182819710345,93.97,3.99066837493841
94.06,5.22297090390094,94.06,4.0023389174939,94.06,7.43521369110572,94.06,3.87309736642142,94.06,3.95275561095318
94.16,5.26165975941961,94.16,3.98300385777973,94.16,7.41595123374157,94.16,3.83436635469952,94.16,3.97203738991048
94.29,5.20277801266923,94.29,3.9436906055064,94.29,7.395483314373,94.29,3.85310350056364,94.29,3.99066837493841
94.36,5.22297090390094,94.36,3.98300385777973,94.36,7.37742690451609,94.36,3.85373186056047,94.36,4.02988272678239
94.46,5.20277801266923,94.46,3.92435899112264,94.46,7.33770595005413,94.46,3.87246584883355,94.46,3.97138973992028
94.55,5.16409546545898,94.55,3.92435899112264,94.55,7.27992858573526,94.55,3.83374115229373,94.55,3.9135538348659
94.66,5.10607223005097,94.66,3.9436906055064,94.66,7.29918790231067,94.66,3.89182819710345,94.66,3.93283246988402
94.75,5.12541350365609,94.75,3.98235441968129,94.75,7.31844721888608,94.75,3.81437880402383,94.75,3.99066837493841

