X,C9: Sample 57,X,D2: Sample 74,X,D6: Sample 78,X,E4: Sample 100,X,E7: Sample 103
24.56,5.24245693799225,24.56,5.54444981771474,24.56,5.26457560992493,24.56,5.53173503645705,24.56,5.36807609255784
24.63,5.17768439288753,24.63,5.53888775469747,24.63,5.29898694114543,24.63,5.6454557125828,24.63,5.34290257556558
24.82,5.15784618125904,24.82,5.53888775469747,24.82,5.23944769458371,24.82,5.56594259003081,24.82,5.32311358728959
25.02,5.13714965841919,25.02,5.47798359750667,25.02,5.25841512358767,25.02,5.56501214158714,25.02,5.38157957231836
25.09,5.17681884885662,25.09,5.53796182896115,25.09,5.27825842148074,25.09,5.54513703391885,25.09,5.30243865212365
25.16,5.15612201405821,25.16,5.47706800606467,25.16,5.25753623087105,25.16,5.52433843269779,25.16,5.32133417442404
25.23,5.13543269663496,25.23,5.53611090588997,25.23,5.21698490033625,25.23,5.50354678288088,25.23,5.32044491403393
25.29,5.13457464605908,25.29,5.45525501867414,25.29,5.25577932653324,25.29,5.48276208098371,25.29,5.33933171335969
25.42,5.11560443063396,25.42,5.49613878238722,25.42,5.25665763190198,25.42,5.52341524779928,25.42,5.34022398135991
25.49,5.0957767646168,25.49,5.45616665888448,25.49,5.27649429767677,25.49,5.52341524779928,25.49,5.34022398135991
25.63,5.13543269663496,25.63,5.49613878238722,25.63,5.25665763190198,25.63,5.50354678288088,25.63,5.34022398135991
25.75,5.13457464605908,25.75,5.49522046345951,25.75,5.19627987228334,25.75,5.48276208098371,25.75,5.28000562546839
25.82,5.09407419971048,25.82,5.49430245135402,25.82,5.21524183822455,25.82,5.46198432352419,25.82,5.27912356639297
25.95,5.07340501348203,25.95,5.43345660485126,25.95,5.21437074388043,25.95,5.50078903436766,25.95,5.29801035861094
26.01,5.07510038692012,26.01,5.49522046345951,26.01,5.19627987228334,26.01,5.50262722619201,26.01,5.28000562546839
26.14,5.09237277212206,26.14,5.49246734699485,26.14,5.17385371040795,26.14,5.48001520619364,26.14,5.23782922193959
26.27,5.05189965975459,26.27,5.49155025443399,26.27,5.19280932302819,26.27,5.49895207025533,26.27,5.29624111153843
26.33,5.05358728282449,26.33,5.3735290634687,26.33,5.15489116584708,26.33,5.44121410670577,26.33,5.21893553238665
26.47,5.13114530917743,26.47,5.41167334947864,26.47,5.17298981765283,26.47,5.47910019280139,26.47,5.23695464701524
26.59,5.03208854714035,26.59,5.43164212610527,26.59,5.17298981765283,26.59,5.37984140501458,26.59,5.1974307369884
26.71,5.03208854714035,26.71,5.47158087832442,26.71,5.17298981765283,26.71,5.41954515992248,26.71,5.17766878197498
26.77,5.07171077236883,26.77,5.45161150221485,26.77,5.17298981765283,26.77,5.43939703737643,26.77,5.1974307369884
26.83,5.01144006094717,26.83,5.3908038558443,26.83,5.11267642474743,26.83,5.41864039445338,26.83,5.27559827519671
26.91,4.99079876756388,26.91,5.40986674846062,26.91,5.1514494091014,26.91,5.41773593102583,26.91,5.17594029965751
27.09,5.02956914366214,27.09,5.40896390020487,27.09,5.17039986947977,27.09,5.41683176948861,27.09,5.25408533375383
27.16,5.02956914366214,27.16,5.4289226791129,27.16,5.13077950633013,27.16,5.43667370775157,27.16,5.23433267372735
27.28,5.00976735064645,27.28,5.4289226791129,27.28,5.09115974236329,27.28,5.41683176948861,27.28,5.19482855203998
27.34,5.00976735064645,27.34,5.36904514402322,27.34,5.13077950633013,27.34,5.37714789296268,27.34,5.1553244303526
27.46,5.00976735064645,27.46,5.4289226791129,27.46,5.09115974236329,27.46,5.39698983122564,27.46,5.17507649119629
27.53,4.97016436379787,27.53,5.38900452211404,27.53,5.11096992393811,27.53,5.43667370775157,27.53,5.17507649119629
27.71,5.00893141416211,27.71,5.3481932103232,27.71,5.11011710065695,27.71,5.37625065486941,27.71,5.11496607695958
27.84,5.00893141416211,27.84,5.42801680180953,27.84,5.09031022463554,27.84,5.31673477263762,27.84,5.15446420601916
27.89,4.98913322484151,27.89,5.36814925796548,27.89,5.11011710065695,27.89,5.31673477263762,27.89,5.15446420601916
28.01,4.96850598396344,28.01,5.36725367083536,28.01,5.06965741879287,28.01,5.35551839849194,28.01,5.15360426871418
28.08,5.00726037782711,28.08,5.30651081113091,28.08,5.08861203940631,28.08,5.37445707666928,28.08,5.13300184283471
28.2,5.04684354666726,28.2,5.40625716264013,28.2,5.10841230762921,28.2,5.37445707666928,28.2,5.15274461829404
28.31,4.96767720898696,28.31,5.32645960232639,28.31,5.16781251341498,28.31,5.33479305863035,28.31,5.13300184283471
28.43,5.00642527769739,28.43,5.32557126683567,28.43,5.06796640564451,28.43,5.29424593034449,28.43,5.11240688779499
28.55,4.94623580364018,28.55,5.36456870151528,28.55,5.0869149868669,28.55,5.31318850965771,28.55,5.11155439373332
28.62,4.94541115612373,28.62,5.34373489654333,28.62,5.0860668850018,28.62,5.33212477267239,28.62,5.13043448612773
28.73,4.96602048822358,28.73,5.36456870151528,28.73,4.98794786007434,28.73,5.35283929974332,28.73,5.09181880117448
28.8,4.94706072622251,28.8,5.32557126683567,28.8,5.04817003845088,28.8,5.27441722886489,28.8,5.05318963695619
28.91,4.92645081971516,28.91,5.30474108933296,28.91,5.0671213220351,28.91,5.33301390470051,28.91,5.07208320861564
29.08,4.92562947079556,29.08,5.30385667101197,29.08,5.04648675400992,29.08,5.31230268296387,29.08,5.07123757953785
29.2,4.9058477854674,29.2,5.28391725895458,29.2,5.06627652021415,29.2,5.29248059325535,29.2,5.03177237656118
29.25,4.94541115612373,29.25,5.26397784689719,29.25,5.00690632372632,29.25,5.31230268296387,29.25,5.09096988173448
29.32,4.90421250287224,29.32,5.3020887187883,29.32,5.08437152937347,29.32,5.2907164330576,29.32,5.01036939433977
29.43,4.94458678353561,29.43,5.32290803733067,29.43,5.025858466837,29.43,5.23214260817367,29.43,5.0703922323834
29.55,4.88525162004252,29.55,5.34284412559875,29.55,5.00607170023512,29.55,5.33123593707101,29.55,5.030933608037
29.67,4.90503000787355,29.67,5.28303645927814,29.67,5.00607170023512,29.67,5.27177958064242,29.67,5.01120459510562
29.78,4.8654732322115,29.78,5.22322819447389,29.78,5.06543200004076,29.78,5.25196139364986,29.78,5.05066262096838
29.89,4.88443741143918,29.89,5.28215595320159,29.89,4.9854538861443,29.89,5.21145510206036,29.89,5.06954716701134
30.01,4.84488722857307,30.01,5.32202088599112,30.01,4.9854538861443,30.01,5.23127058440564,30.01,5.01036939433977
30.07,4.90257831010221,30.07,5.28039582126117,30.07,5.00356949845226,30.07,5.28895344857474,30.07,5.0481381311545
30.18,4.88362347419349,30.18,5.28127574057816,30.18,4.98462311562503,30.18,5.25021103157899,30.18,5.00953447192778
30.3,4.84407988192608,30.3,5.24141685255276,30.3,4.96484294351294,30.3,5.21058667094853,30.3,5.00953447192778
30.41,4.84407988192608,30.41,5.24141685255276,30.41,4.96484294351294,30.41,5.17096231031807,30.41,4.97008929740647
30.47,4.86304130623738,30.47,5.24054357417013,30.47,4.9442385698142,30.47,5.17010077044631,30.47,4.98898037692629
30.58,4.88199641323257,30.58,5.23967058673482,30.58,4.96318882292539,30.58,5.20885067672199,30.58,4.98814929573739
30.69,4.88199641323257,30.69,5.27951619510404,30.69,4.9236413598501,30.69,5.18904509716649,30.69,5.02758132843811
30.79,4.84246599557528,30.79,5.27951619510404,30.79,4.96318882292539,30.79,5.18904509716649,30.79,4.98814929573739
30.91,4.86223120440393,30.91,5.23967058673482,30.91,4.98296240494183,30.91,5.12962835849998,30.91,4.96843342890825
31.01,4.82189753878082,31.01,5.23879789010145,31.01,4.90305101104855,31.01,5.10897170919448,31.01,4.94789302631732
31.08,4.86142137242451,31.08,5.21887840417204,31.08,4.96236217588627,31.08,5.18818083249341,31.08,4.94789302631732
31.18,4.8210945583414,31.18,5.23792548412475,31.18,4.92200151260286,31.18,5.18731685566868,31.18,4.9667786634032
31.36,4.84165945560267,31.36,5.23879789010145,31.36,4.94259158827862,31.36,5.14857627084395,31.36,4.987318491391
31.47,4.8210945583414,31.47,5.13834523811346,31.47,4.90223451629234,31.47,5.18731685566868,31.47,4.98648796374881
31.53,4.76181897954982,31.53,5.19809314656597,31.53,4.92200151260286,31.53,5.16751787247606,31.53,4.9667786634032
31.62,4.8210945583414,31.62,5.19809314656597,31.62,4.92200151260286,31.62,5.14771888928344,31.62,4.94706906411477
31.73,4.84004718139168,31.73,5.21714051592556,31.73,4.96070970762923,31.73,5.1666574798899,31.73,4.94624537629191
31.84,4.80053680809081,31.84,5.17731540824372,31.84,4.90141829342915,31.84,5.14686179323128,31.84,4.94624537629191
31.95,4.84004718139168,31.95,5.17731540824372,31.95,4.84212687922907,31.95,5.14686179323128,31.95,4.92653935754809
32.06,4.77998560359498,32.06,5.21627200576809,32.06,4.92036275731316,32.06,5.16579737376706,32.06,4.92571922447708
32.17,4.77919000013233,32.17,5.17559193440609,32.17,4.8405149861268,32.17,5.10557026331619,32.17,4.96429858084824
32.27,4.73969248062556,32.27,5.17559193440609,32.27,4.91954378881161,32.27,5.14514845708173,32.27,4.92489936441975
32.38,4.79893875988572,32.38,5.21540378472851,32.38,4.91954378881161,32.38,5.12535936019896,32.38,4.92489936441975
32.48,4.81948939950725,32.48,5.15654399007683,32.48,4.92036275731316,32.48,5.12621259132268,32.48,4.92571922447708
32.59,4.77839466147363,32.59,5.17473062771039,32.59,4.83970944194538,32.59,5.045363795988,32.59,4.8846871175123
32.64,4.81788530917625,32.64,5.15482771649052,32.64,4.89897125484032,32.64,5.10472060941982,32.64,4.92407977723978
32.76,4.81788530917625,32.76,5.15482771649052,32.76,4.87921711804612,32.76,5.08493480577999,32.76,4.92407977723978
32.86,4.71837302412646,32.86,5.17386960763923,32.86,4.85865471705399,32.86,5.06430621528458,32.86,4.86418145433545
33.02,4.77680477803943,33.02,5.133216295936,33.02,4.87759368862738,33.02,5.08324292928498,33.02,4.9224414209672
33.13,4.75785739969995,33.13,5.13407040846445,33.13,4.81915361460984,33.13,5.08408872677737,33.13,4.90356755954384
33.23,4.79734177527344,33.23,5.19376860983838,33.23,4.87840526827607,33.23,5.06430621528458,33.23,4.8444882523842
33.32,4.79734177527344,33.32,5.15397000805184,33.32,4.85865471705399,33.32,5.12365374976296,33.32,4.90356755954384
33.43,4.73732697115261,33.43,5.19290456581745,33.43,4.87759368862738,33.43,5.06346370884383,33.43,4.88306186809706
33.53,4.75627461280717,33.53,5.21193378886376,33.53,4.91627063925152,33.53,5.00329428841459,33.53,4.88224964889079
33.63,4.75627461280717,33.63,5.15225544717092,33.63,4.83729441727375,33.63,5.02307021889891,33.63,4.90193629954399
33.74,4.71601893813404,33.74,5.17128826574285,33.74,4.79700825142339,33.74,5.02223485049397,33.74,4.86175462174556
33.84,4.77521595223599,33.84,5.11161925184618,33.84,4.81674924726512,33.84,5.08155217826908,33.84,4.88143769983892
33.94,4.69628660010006,33.94,5.19117733995155,33.94,4.87597133915502,33.94,5.06177953664731,33.94,4.86175462174556
34.1,4.79494829026998,34.1,5.11161925184618,34.1,4.81674924726512,34.1,5.02223485049397,34.1,4.86175462174556
34.14,4.69550570774886,34.14,5.09088293445808,34.14,4.81594832454359,34.14,5.06093787061195,34.14,4.9003061245192
34.24,4.67577665078206,34.24,5.13065566259916,34.24,4.79621061120865,34.24,5.00163040604398,34.24,4.88062602080669
34.35,4.73417662902716,34.35,5.14968574370599,34.35,4.77567910273718,34.35,5.0600964844323,34.35,4.86013807823044
34.4,4.73338969807153,34.4,5.10907023958629,34.4,4.87353983748989,34.4,5.07901815956316,34.4,4.91835029611599
34.55,4.69472507504599,34.55,5.12980268576414,34.55,4.85461593507805,34.55,5.00079887979194,34.55,4.80110788105181
34.71,4.71366719996676,34.71,5.1687094983231,34.71,4.85380898429097,34.71,5.01973041157251,34.71,4.87900347226254
34.76,4.6742222037572,34.76,5.1687094983231,34.76,4.83407813109206,34.76,5.01973041157251,34.76,4.83965664840908
34.86,4.69394470186198,34.86,5.14882974541083,34.86,4.83407813109206,34.86,4.99996762997815,34.86,4.83965664840908
34.96,4.71366719996676,34.96,5.10907023958629,34.96,4.77488527309909,34.96,4.98020484838378,34.96,4.81998338568046
35.1,4.71288380837627,35.1,5.12809758266102,35.1,4.79381928133768,35.1,4.99913665646477,35.1,4.85852260936614
35.2,4.73181662073751,35.2,5.16699174840674,35.2,4.8324715913343,35.2,5.01806217281825,35.2,4.83804825470739
35.3,4.73181662073751,35.3,5.12724545611022,35.3,4.81274729541461,35.3,4.99830595911408,35.3,4.81838153011859
35.4,4.75153256433976,35.4,5.08749916381371,35.4,4.81274729541461,35.4,5.03781838652242,35.4,4.87738200218203
35.49,4.69238473353301,35.49,5.12724545611022,35.49,4.87192018317367,35.49,4.99830595911408,35.49,4.83804825470739
35.64,4.67189247014509,35.64,5.10652376829226,35.64,4.79222638574661,35.64,5.01722846918429,35.64,4.81758100153741
35.74,4.71053519518272,35.74,5.12554205230421,35.74,4.83086611904482,35.74,4.99664539235025,35.74,4.83644092970582
35.79,4.71131780611397,35.79,5.16613330153045,35.79,4.85138974073675,35.79,4.99747553778842,35.79,4.83724445868567
35.88,4.75074314208285,35.88,5.12639361270499,35.88,4.87111075965096,35.88,4.99747553778842,35.88,4.87657167122968
36.02,4.71053519518272,36.02,5.10567550853008,36.02,4.83086611904482,36.02,4.97689574217223,36.02,4.85610141869702
36.17,4.71053519518272,36.17,5.14540859607833,36.17,4.87030160503973,36.17,4.97689574217223,36.17,4.87576160949027
36.23,4.70975284421193,36.23,5.10482753053498,36.23,4.84977825103712,36.23,5.03530826276232,36.23,4.85529489130644
36.37,4.69004672419891,36.37,5.10482753053498,36.37,4.79063454838213,36.37,4.95632278256189,36.37,4.89460904050132
36.42,4.76887120425096,36.42,5.14455401899876,36.42,4.83006378286826,36.42,4.93657641251178,36.42,4.85529489130644
36.56,4.70897075307207,36.56,5.12383977995206,36.56,4.82926171316005,36.56,4.93575665555189,36.56,4.81518101100194
36.66,4.72945896422494,36.66,5.14455401899876,36.66,4.84977825103712,36.66,4.976069152612,36.66,4.87495181682967
36.8,4.70897075307207,36.8,5.10397983416657,36.8,4.78983902620538,36.8,4.97524283757503,36.8,4.8348346723396
36.84,4.72867360073038,36.84,5.10397983416657,36.84,4.84897290758792,36.84,4.93575665555189,36.84,4.81518101100194
36.98,4.70897075307207,36.98,5.08411988838108,36.98,4.80955051873217,36.98,4.95549974656346,36.98,4.8348346723396
37.03,4.76728765080442,37.03,5.14284571615334,37.03,4.82845990978745,37.03,4.97441679692459,37.03,4.85368263997278
37.17,4.68771104355937,37.17,5.08243193357086,37.17,4.82765837261783,37.17,5.03280063912548,37.17,4.87252405198065
37.26,4.68848934524351,37.26,5.14284571615334,37.26,4.78904376819008,37.26,4.99415660998647,37.26,4.87333303820877
37.36,4.76649626839227,37.36,5.06257858139287,37.36,4.82765837261783,37.36,4.97359103052404,37.36,4.81358234532764
37.46,4.74679996218405,37.46,5.10228528574886,37.46,4.80795372241121,37.46,4.97359103052404,37.46,4.87252405198065
37.58,4.7074073497676,37.58,5.10228528574886,37.58,4.82765837261783,37.58,4.97359103052404,37.58,4.85287691576296
37.74,4.72710365597582,37.74,5.08243193357086,37.74,4.82765837261783,37.74,4.97359103052404,37.74,4.83322948154533
37.83,4.72631907445616,37.83,5.10143843341927,37.83,4.80715572179339,37.83,4.95303227780998,37.83,4.87171533429567
37.87,4.7066260373444,37.87,5.10143843341927,37.87,4.88596153864489,37.87,4.97276553823682,37.87,4.87171533429567
37.97,4.72631907445616,37.97,5.06173831938766,37.97,4.82685710151864,37.97,5.01223205909049,37.97,4.87171533429567
38.11,4.72553475333527,38.11,5.10059186215584,38.11,4.78665957779768,38.11,4.95221033418605,38.11,4.85126626959112
38.24,4.80429353183539,38.24,5.12043862510311,38.24,4.86545231701612,38.24,4.95221033418605,38.24,4.87090688502015
38.34,4.72475069248355,38.34,5.1195890417905,38.34,4.82525535700179,38.34,4.93166195117529,38.34,4.83082369285367
38.41,4.72475069248355,38.41,5.13943251176233,38.41,4.78586537511346,38.41,4.93166195117529,38.41,4.87009870402048
38.51,4.74443719465683,38.51,5.1195890417905,38.51,4.82525535700179,38.51,4.97111537545658,38.51,4.88973635852969
38.6,4.7641236968301,38.6,5.1195890417905,38.6,4.84495019902016,38.6,4.95138866331594,38.6,4.90937371518729
38.73,4.7641236968301,38.73,5.13943251176233,38.73,4.84495019902016,38.73,4.97111537545658,38.73,4.90937371518729
38.79,4.76333336443182,38.79,5.11873974035689,38.79,4.84414645811123,38.79,5.00973758394496,38.79,4.9085592869001
38.92,4.80269953928999,38.92,5.13857991844584,38.92,4.86383803290298,38.92,4.93084382543687,38.92,4.88892518793272
39.05,4.74286332264002,39.05,5.13772760796012,39.05,4.84334298382725,39.05,4.98918647569224,39.05,4.92737597114102
39.15,4.76254329421049,39.15,5.15756449525821,39.15,4.86303129247622,39.15,4.93002597109528,39.15,4.94700711125165
39.23,4.78222326578096,39.23,5.15756449525821,39.23,4.86303129247622,39.23,4.96946630749326,39.23,4.92737597114102
39.36,4.80190293959862,39.36,5.13772760796012,39.36,4.882719898878,39.36,5.02862681209022,39.36,4.94700711125165
39.5,4.76175348603566,39.5,5.13687558016443,39.5,4.90159520450749,39.5,4.9686421837275,39.5,4.92655882753055
39.58,4.86013672780018,39.58,5.13687558016443,39.58,4.88191016091799,39.58,4.9686421837275,39.58,4.90693124070213
39.67,4.76096393977699,39.67,5.13602383491818,39.67,4.86141861421641,39.67,4.92839107606259,39.67,4.92574195490121
39.76,4.78143019392925,39.76,5.15670917776315,39.76,4.88191016091799,39.76,4.9686421837275,39.76,4.94618671206239
39.85,4.80110660411942,39.85,5.19637577755371,39.85,4.92128024809698,39.85,4.9686421837275,39.85,4.94618671206239
39.98,4.85933086861799,39.98,5.17568385759056,39.98,4.86141861421641,39.98,5.02695921905023,39.98,4.94536658493388
40.06,4.80031053272095,40.06,5.17568385759056,40.06,4.92046425070881,40.06,5.02695921905023,40.06,4.94536658493388
40.15,4.87819546041669,40.15,5.17482581981576,40.15,4.93932733819979,40.15,4.98670511637078,40.15,4.98378918535123
40.28,4.87900431391701,40.28,5.17568385759056,40.28,4.92046425070881,40.28,4.96781833325764,40.28,4.96499091731248
40.37,4.87819546041669,40.37,5.19465284128795,40.37,4.93932733819979,40.37,4.98670511637078,40.37,5.02303134336693
40.5,4.8380530283502,40.5,5.21361553657701,40.5,4.95818387483272,40.5,4.98587854499396,40.5,4.98296309730459
40.59,4.89624222171558,40.59,5.19293104717416,40.59,4.93769017302306,40.59,5.0047560749122,40.59,5.04098160458535
40.72,4.85771995170481,40.72,5.21361553657701,40.72,4.99753438464365,40.72,5.00558563832591,40.72,5.06143499927787
40.8,4.89786564420289,40.8,5.2541339057045,40.8,4.95900585491807,40.8,5.06554596285345,40.8,5.00341026435908
40.89,4.91672072176863,40.89,5.2730867417089,40.89,5.0172099371045,40.89,5.00558563832591,40.89,4.98296309730459
41.01,4.87738687505942,41.01,5.19379180153305,41.01,4.97785912973819,41.01,5.02529273165787,41.01,5.06143499927787
41.09,4.89705379841402,41.09,5.21361553657701,41.09,4.97785912973819,41.09,5.064706323211,41.09,5.08105282599349
41.23,4.89624222171558,41.23,5.2127514968792,41.23,5.03605014389203,41.23,5.04416313454761,41.23,5.09982533108951
41.31,4.95441183371585,41.31,5.29115581043027,41.31,5.05488470194545,41.31,5.08272844109423,41.31,5.07936896424503
41.44,4.91509131970674,41.44,5.29115581043027,41.44,4.99587820092049,41.44,5.06302787869627,41.44,5.11859220988779
41.5,4.91509131970674,41.5,5.31097297588515,41.5,5.01554723289999,41.5,5.04332731629831,41.5,5.11859220988779
41.62,4.95441183371585,41.62,5.27133923988894,41.62,5.09422217099091,41.62,5.06302787869627,41.62,5.13820353525239
41.74,5.03305315919087,41.74,5.25152207443406,41.74,5.03521566996595,41.74,5.08272844109423,41.74,5.15781486061699
41.87,5.01256246889831,41.87,5.3100930930197,41.87,5.05404724589808,41.87,5.1015836706553,41.87,5.1373522755547
41.95,4.992905617764,41.95,5.3100930930197,41.95,5.05404724589808,41.95,5.08188637210134,41.95,5.15696035185943
42.07,5.07069354197674,42.07,5.34883470208835,42.07,5.11219702003089,42.07,5.14012668945151,42.07,5.27373569083635
42.16,5.05103994690524,42.16,5.38845530780926,42.16,5.13185953584939,42.16,5.0810445820778,42.16,5.1561061261924
42.29,5.05103994690524,42.29,5.36864530230704,42.29,5.15152145695143,42.29,5.12043265366027,42.29,5.23452603419386
42.37,5.11000132683623,42.37,5.38845530780926,42.37,5.13185953584939,42.37,5.14012668945151,42.37,5.2541308625151
42.45,5.11000132683623,42.45,5.34883470208835,42.45,5.13185953584939,42.45,5.14012668945151,42.45,5.23452603419386
42.58,5.1296555166242,42.58,5.42807650824663,42.58,5.17118397276994,42.58,5.14012668945151,42.58,5.31294594219531
42.65,5.1288059545976,42.65,5.36775615932885,42.65,5.1506682735369,42.65,5.15896616732203,42.65,5.29246444260645
42.77,5.16810663477206,42.77,5.40737020317402,42.77,5.22930471634611,42.77,5.17865694143129,42.77,5.31206602402005
42.86,5.18603976895756,42.86,5.42538044375578,42.86,5.16861550390929,42.86,5.19662640834997,42.86,5.36909292865273
42.98,5.16639534118438,42.98,5.42538044375578,42.98,5.22757315849301,42.98,5.19662640834997,42.98,5.38868801947647
43.11,5.14675150783228,43.11,5.42538044375578,43.11,5.20792040882475,43.11,5.19662640834997,43.11,5.36909292865273
43.23,5.20568360230966,43.23,5.52438365191767,43.23,5.22757315849301,43.23,5.21631066233535,43.23,5.38868801947647
43.31,5.28426012456022,43.31,5.48478272530556,43.31,5.30618296832392,43.31,5.25567857588503,43.31,5.42787820112394
43.43,5.24410363435641,43.43,5.54326665305462,43.43,5.36425250163253,43.43,5.25480857446542,43.43,5.44657154169243
43.55,5.28426012456022,43.55,5.54418441243426,43.55,5.30618296832392,43.55,5.25567857588503,43.55,5.46706897719249
43.64,5.32266714940249,43.64,5.54326665305462,43.64,5.34460359951484,43.64,5.31385156109264,43.64,5.46616398315554
43.72,5.32266714940249,43.72,5.52346917026696,43.72,5.32495410307446,43.72,5.27448957000783,43.72,5.48575583029598
43.83,5.34230773100267,43.83,5.56306413584227,43.83,5.34460359951484,43.83,5.31385156109264,43.83,5.5641238131804
43.96,5.36194890692553,43.96,5.52346917026696,43.96,5.36425250163253,43.96,5.35321355217746,43.96,5.52493952457685
44.04,5.40033671697018,44.04,5.64131963396239,44.04,5.40265656869438,44.04,5.29329433738646,44.04,5.58279151009569
44.13,5.379808389903,44.13,5.62059517373499,44.13,5.46069091870547,44.13,5.35144184489559,44.13,5.64062434883792
44.25,5.45924930396842,44.25,5.64131963396239,44.25,5.48124095162752,44.25,5.35232755192056,44.25,5.64155791791254
44.36,5.45834590345478,44.36,5.64038610431917,44.36,5.46069091870547,44.36,5.35144184489559,44.36,5.67979507482679
44.44,5.45834590345478,44.44,5.66017703490335,44.44,5.49997690513483,44.44,5.41046469644478,44.44,5.66020971183236
44.56,5.51724874155562,44.56,5.69975889607172,44.56,5.49997690513483,44.56,5.41046469644478,44.56,5.67979507482679
44.68,5.53688341700655,44.68,5.67996796548754,44.68,5.51961930422353,44.68,5.44981366022823,44.68,5.71896639494164
44.8,5.53596732114007,44.8,5.73839057010234,44.8,5.53834580797801,44.8,5.46858319702695,44.8,5.73760229536858
44.88,5.57522898674123,44.88,5.75817822621091,44.88,5.63654333600167,44.88,5.46858319702695,44.88,5.77676654042992
44.95,5.5565174983315,44.95,5.75913109369829,44.95,5.61783308204498,44.95,5.48916262401168,44.95,5.85606453002867
45.08,5.67338493282716,45.08,5.81754119453663,45.08,5.6758222284056,45.08,5.56693933044165,45.08,5.8942604636693
45.18,5.71170157831278,45.18,5.81657882213059,45.18,5.63561090534229,45.18,5.56601841409253,45.18,5.87370651676458
45.26,5.65281822833041,45.26,5.83636320484692,45.26,5.69451979428946,45.26,5.58568579271426,45.26,5.8932853999036
45.38,5.73038180361408,45.38,5.91452172627807,45.38,5.69357792862716,45.38,5.60442664754043,45.38,5.93146194832418
45.5,5.75000614258972,45.5,5.9540839470919,45.5,5.73284382768262,45.5,5.58476192804461,45.5,6.00976512143116
45.62,5.75000614258972,45.62,5.87495950546424,45.62,5.75247707412594,45.62,5.62409136703624,45.62,5.99018947661221
45.7,5.82850468615462,45.7,5.91452172627807,45.7,5.83100887223687,45.7,5.70275024501949,45.7,6.04891700490024
45.81,5.79021310757554,45.81,5.95506890721549,45.81,5.81233757218381,45.81,5.70369362802115,45.81,6.0694965360136
45.93,5.88640469375462,45.93,6.01243223654291,45.93,5.86930459029879,45.93,5.72146864155111,45.93,6.16535172703528
46,5.88640469375462,46,6.0717657540823,46,5.90856399590311,46,5.76079098285094,46,6.16535172703528
46.11,5.9060263811616,46.11,6.11132083870891,46.11,5.94782340150743,46.11,5.80011391788375,46.11,6.20449713590812
46.2,5.92466770508116,46.2,6.09053579995909,46.2,5.90758705079797,46.2,5.8188131209515,46.2,6.20347126005893
46.35,6.04237658265889,46.35,6.13008493802795,46.35,5.98609287939894,46.35,5.79915490433912,46.35,6.22304043145036
46.43,6.06099228390935,46.43,6.16861413328376,46.43,5.98510327898905,46.43,5.85716110822584,46.43,6.30027599834957
46.51,6.10022209002551,46.51,6.20815613968765,46.51,6.0635967228115,46.51,5.85716110822584,46.51,6.39810627330082
46.62,6.15906650243143,46.62,6.20815613968765,46.62,6.02435029766861,46.62,5.89647104179228,46.62,6.41767220958374
46.74,6.15906650243143,46.74,6.26747003959849,46.74,6.0635967228115,46.74,5.91612600857549,46.74,6.47637061196916
46.84,6.21791150837401,46.84,6.26747003959849,46.84,6.12246665729417,46.84,5.93578097535871,46.84,6.47637061196916
46.96,6.23752611466376,46.96,6.32678334597266,46.96,6.16171308243706,46.96,5.9947452821717,46.96,6.515502484535
47.08,6.25714131449018,47.08,6.34655464594294,47.08,6.22058301691973,47.08,5.9947452821717,47.08,6.59376682320334
47.19,6.3345531265192,47.19,6.38504169261971,47.19,6.31765496342519,47.19,6.05270956926805,47.19,6.59267694438958
47.26,6.39338840601452,47.26,6.38504169261971,47.26,6.23917508716426,47.26,6.09201300532481,47.26,6.69049104904746
47.34,6.39338840601452,47.34,6.44434519514159,47.34,6.31765496342519,47.34,6.05270956926805,47.34,6.71005434472989
47.45,6.47183445627735,47.45,6.48388125911522,47.45,6.33727522920971,47.45,6.09201300532481,47.45,6.74917974921761
47.6,6.50998174808703,47.6,6.58163295239545,47.6,6.41469482533423,47.6,6.1695995154848,47.6,6.86542177566056
47.67,6.50998174808703,47.67,6.56186818731195,47.67,6.3950783953734,47.67,6.20889645617946,47.67,6.86542177566056
47.78,6.56880671100942,47.78,6.60139771747894,47.78,6.47354530189772,47.78,6.22854492652679,47.78,6.96322030871022
47.89,6.6069316763904,47.89,6.65959084248553,47.89,6.49208942990407,47.89,6.24716097893015,47.89,6.98162598092876
48.01,6.6461420361387,48.01,6.73863683952467,48.01,6.60977034151478,48.01,6.32574128064586,48.01,7.02073845567277
48.08,6.76265569045126,48.08,6.69800709825919,48.08,6.5694578690167,48.08,6.32469622178569,48.08,7.0782381909402
48.19,6.82146121674291,48.19,6.75728180180465,48.19,6.64789944206841,48.19,6.34433819999016,48.19,7.13689780369907
48.31,6.82033444746364,48.31,6.7561656336841,48.31,6.6468013417311,48.31,6.38256770939607,48.31,7.174818484133
48.42,6.86066509865216,48.42,6.79679767769051,48.42,6.68711993202204,48.42,6.48183204742149,48.42,7.21511042299607
48.49,6.86066509865216,48.49,6.85607238123597,48.49,6.74595096352471,48.49,6.48183204742149,48.49,7.31287604883122
48.6,6.93792666609431,48.6,6.85493989488294,48.6,6.74483666703255,48.6,6.50039951879925,48.6,7.35076766117048
48.7,7.01632088546829,48.7,6.95371415608178,48.7,6.80365798082272,48.7,6.52003825254086,48.7,7.3703174379421
48.83,6.99672247888641,48.83,6.97346912693085,48.83,6.90169330612417,48.83,6.57895445376568,48.83,7.44851713807503
48.94,7.07511729130685,48.94,7.03273344643156,48.94,6.94090731763546,48.94,6.57895445376568,48.94,7.50716706143635
49.04,7.17311051030918,49.04,7.05248841728063,49.04,6.96051461991434,49.04,6.67714752942725,49.04,7.58536676156928
49.16,7.17192585126536,49.16,7.11057821114356,49.16,6.99857260687873,49.16,6.71531576074252,49.16,7.62320711340895
49.23,7.21111678391552,49.23,7.13032991940454,49.23,7.03778014208754,49.23,6.69568027039212,49.23,7.66230080250127
49.34,7.26870244010103,49.34,7.16864941364513,49.34,7.0562188521031,49.34,6.81236813105258,49.34,7.71966611545156
49.44,7.3274788355177,49.44,7.24764260779599,49.44,7.0562188521031,49.44,6.83200037908291,49.44,7.83692663093298
49.55,7.3274788355177,49.55,7.22789416104562,49.55,7.13462156704399,49.55,6.91052877835363,49.55,7.79783999005605
49.7,7.46585695671874,49.7,7.22908786776091,49.7,7.15540334066249,49.7,6.87239909059722,49.7,7.91640770628157
49.77,7.48421668042965,49.77,7.34638424869721,49.77,7.19342286218638,49.77,6.89089653032329,49.77,7.99327438014196
49.87,7.58092573295725,49.87,7.34517137363551,49.87,7.27062501157053,49.87,6.94864587582185,49.87,8.0310348924039
49.95,7.61884586690636,49.95,7.48215179505588,49.95,7.24983048647844,49.95,7.0260019224397,49.95,8.0883203993595
50.06,7.67633571750489,50.06,7.42170149928886,50.06,7.28781619129874,50.06,7.10333184223851,50.06,8.18465428494801
50.19,7.65801739169948,50.19,7.52163564897474,50.19,7.32820731739326,50.19,7.08487862958922,50.19,8.22507966324761
50.3,7.73635984863082,50.3,7.54137757593417,50.3,7.42617791154562,50.3,7.14375592939362,50.3,8.22507966324761
50.41,7.79511743214794,50.41,7.54137757593417,50.41,7.44577226743805,50.41,7.14375592939362,50.41,8.28369026835262
50.52,7.81470289821705,50.52,7.5611195028936,50.52,7.46536603067559,50.52,7.18300746259655,50.52,8.34230146611251
50.62,7.9322174725964,50.62,7.69931180629982,50.62,7.52414850569798,50.62,7.2222584031446,50.62,8.42044953224073
50.73,7.9322174725964,50.73,7.65982854503585,50.73,7.6025253366128,50.73,7.28113570294901,50.73,8.51813446673729
50.84,7.95049054339588,50.84,7.73751842046621,50.84,7.60127058742373,50.84,7.3191790520892,50.84,8.57533012634493
50.91,8.02882066295247,50.91,7.81647250262128,50.91,7.67963389017644,50.91,7.33880157958081,50.91,8.55579648241435
51.01,8.08756795634138,51.01,7.77699575782228,51.01,7.69922501214315,51.01,7.4172910969902,51.01,8.67299893855488
51.11,8.14631524973029,51.11,7.77699575782228,51.11,7.71881554155279,51.11,7.45653615197343,51.11,8.73160046290369
51.25,8.18412957018358,51.25,7.87438889008961,51.25,7.65877932720892,51.25,7.49454427936475,51.25,8.74969002529848
51.36,8.24422760289749,51.36,7.89542717733343,51.36,7.75799778548622,51.36,7.47615867946504,51.36,8.84880291904423
51.47,8.2037091648618,51.47,7.95332994351825,51.47,7.75671758783185,51.47,7.51416356881552,51.47,8.94499541578698
51.57,8.31981145691293,51.57,7.97174988471223,51.57,7.81419119220371,51.57,7.55215591736767,51.57,8.92399238922517
51.68,8.34076395777215,51.68,8.03227099694689,51.68,7.8742431451038,51.68,7.6122594236101,51.68,8.94499541578698
51.78,8.339387821168,51.78,8.05067791371364,51.78,7.8925286367473,51.78,7.68946769235505,51.78,9.04115617106901
51.86,8.37853995731661,51.86,8.05067791371364,51.86,7.8925286367473,51.86,7.65023558739822,51.86,9.0997383581717
51.95,8.39811572921014,51.95,8.07041006905438,51.95,7.95128201633576,51.95,7.70908374483347,51.95,9.11926555641875
52.05,8.43726786535874,52.05,8.10987437973586,52.05,7.91211329406397,52.05,7.7875473623856,52.05,9.23642993062413
52.16,8.47642000150735,52.16,8.1296065350766,52.16,7.99045073860755,52.16,7.80716341486402,52.16,9.19737494176849
52.3,8.45544857891554,52.3,8.16772266674965,52.3,7.98913261740356,52.3,7.78626271254027,52.3,9.29347820112817
52.4,8.59245815414431,52.4,8.16772266674965,52.4,8.00871404399484,52.4,7.80587552911429,52.4,9.33252674739245
52.52,8.59245815414431,52.52,8.24663826788474,52.52,8.06745773150484,52.52,7.86471397883634,52.52,9.39109927065695
52.59,8.57288561151041,52.59,8.22690936760097,52.59,8.06745773150484,52.59,7.90393961198437,52.59,9.3715747013929
52.72,8.63018017938636,52.72,8.28472881026792,52.72,8.04654892963649,52.72,7.94185454819221,52.72,9.4481126215485
52.78,8.649750085992,52.78,8.32418010286902,52.78,8.06612712656809,52.78,7.94185454819221,52.78,9.48715472734662
52.93,8.649750085992,52.93,8.34390574916957,52.93,8.08570473133356,52.93,7.98107371166629,52.93,9.46763397053063
53.03,8.70845862147664,53.03,8.36363139547011,53.03,8.14443872996223,53.03,8.00068329340333,53.03,9.50667548416262
53.13,8.72658861732513,53.13,8.34252977526634,53.13,8.1235212734281,53.13,7.96015122357537,53.13,9.52462529832673
53.2,8.76572138401323,53.2,8.40169636336946,53.2,8.06479696048522,53.2,8.0581829634102,53.2,9.5051077606329
53.34,8.72658861732513,53.34,8.42141875676,53.34,8.1235212734281,53.34,8.0581829634102,53.34,9.62221357886436
53.47,8.78528806339153,53.47,8.44114115015054,53.47,8.14309564969674,53.47,8.07778931137717,53.47,9.64173170862667
53.57,8.78383954103978,53.57,8.42003022934751,53.57,8.12218186349019,53.57,8.11566308030194,53.57,9.6401419754513
53.67,8.88165503120302,53.67,8.47918706203627,53.67,8.14175301232663,53.67,8.1352661955652,53.67,9.6401419754513
53.77,8.78383954103978,53.77,8.45946851245393,53.77,8.16132475313394,53.77,8.1352661955652,53.77,9.6401419754513
53.88,8.82151076876024,53.88,8.43835805052965,53.88,8.12084289516452,53.88,8.13392507024447,53.88,9.69708607432216
53.98,8.78239149627535,53.98,8.47778924023244,53.98,8.12084289516452,53.98,8.15352495386987,53.98,9.67757497168857
54.08,8.74471322658031,54.08,8.38059194624109,54.08,8.14175301232663,54.08,8.1352661955652,54.08,9.6596562950845
54.18,8.78239149627535,54.18,8.45807394131769,54.18,8.15997933197451,54.18,8.15352495386987,54.18,9.67757497168857
54.28,8.8005003411658,54.28,8.51581716141263,54.28,8.1781996432757,54.28,8.13258438702867,54.28,9.65647196797223
54.38,8.76283126815962,54.38,8.39892626895358,54.38,8.15997933197451,54.38,8.17312483749527,54.38,9.65806386905498
54.51,8.74327163191717,54.51,8.45807394131769,54.51,8.1012743808229,54.51,8.15352495386987,54.51,9.73610887146262
54.61,8.76138692478264,54.61,8.45667982990491,54.61,8.09993907929318,54.61,8.19137434618725,54.61,9.6759798546667
54.71,8.82005675346953,54.71,8.41725454771594,54.71,8.13906906539658,54.71,8.17177769313439,54.71,9.63696408127775
54.81,8.76138692478264,54.81,8.45667982990491,54.81,8.11950436823274,54.81,8.25016430534582,54.81,9.69548774136117
54.95,8.68172911639138,54.95,8.47499497878214,54.95,8.15728981999956,54.95,8.11165072215413,54.95,9.63537591976139
55.05,8.75994305745818,55.05,8.47499497878214,55.05,8.03991861575248,55.05,8.15083756924434,55.05,9.61587065626787
55.11,8.77949683856398,55.11,8.39615800057225,55.11,8.0203571428301,55.11,8.19002441633454,55.11,9.61587065626787
55.24,8.71939913914311,55.24,8.41448069550052,55.24,7.97991793157033,55.24,8.12990434603772,55.24,9.63378828161347
55.34,8.69984917152956,55.34,8.35536285232086,55.34,7.9994767728945,55.34,8.12990434603772,55.34,9.55578185805032
55.47,8.66074864472173,55.47,8.41448069550052,55.47,7.97991793157033,55.47,8.11031415093611,55.47,9.51677835047838
55.58,8.58254759110608,55.58,8.37506840566028,55.58,7.9994767728945,55.58,8.16908473624095,55.58,9.49727689248277
55.67,8.60209815030034,55.67,8.37506840566028,55.67,7.88212490811095,55.67,8.03195396211036,55.67,9.536279808474
55.77,8.56299762349252,55.77,8.3947745505804,55.77,7.96035968182688,55.77,8.11031415093611,55.77,9.536279808474
55.9,8.56299762349252,55.9,8.27653827264037,55.9,7.90168374943511,55.9,8.0907245474152,55.9,9.47777543448716
55.97,8.52249283027667,55.97,8.37368865798224,55.97,7.91993701697112,55.97,8.08939164386538,55.97,9.41771869454253
56.08,8.48339874507129,56.08,8.33428345258897,56.08,7.9003819893446,56.08,8.05021770842166,56.08,9.47621402173024
56.17,8.52108902648319,56.17,8.35261030320133,56.17,7.87952826014254,56.17,8.10764232944017,56.17,9.43566246490669
56.27,8.48339874507129,56.27,8.2751747572742,56.27,7.82216010438875,56.27,7.97186983753422,56.27,9.41771869454253
56.37,8.4233702078635,56.37,8.21471332340587,56.37,7.82087165765767,56.37,8.02930795520471,56.37,9.39667239784184
56.5,8.44291373503311,56.5,8.21471332340587,56.5,7.80131985108659,56.5,7.97055673098875,56.5,9.29919663879388
56.6,8.36611708093838,56.6,8.19636375500442,56.6,7.78304945765245,56.6,7.99145680525608,56.6,9.35922336735482
56.73,8.38428256213847,56.73,8.25411203807185,56.73,7.7622150551728,56.73,7.99014047239407,56.73,9.26020598034321
56.83,8.38290175143983,56.83,8.15427121308241,56.83,7.80003504873957,56.83,7.91050309978935,56.83,9.25868091348215
56.92,8.34519491641343,56.92,8.17531401735408,56.92,7.70355845268792,56.92,7.91180609815862,56.92,9.24071094681078
57.02,8.30473933470838,57.02,8.15427121308241,57.02,7.66319198626137,57.02,7.93008302465239,57.02,9.1807130306421
57.11,8.32428023453545,57.11,8.11487898700581,57.11,7.66319198626137,57.11,7.91050309978935,57.11,9.20020485353001
57.21,8.30337184922596,57.21,8.03477010291757,57.21,7.62283881358302,57.21,7.87004594661248,57.21,9.1986899177728
57.31,8.18614812103779,57.31,8.07415643373272,57.31,7.62283881358302,57.31,7.77215948681362,57.31,9.12073546456985
57.41,8.22522230297314,57.41,8.01507693750999,57.41,7.58374748710693,57.41,7.79173677877339,57.41,9.14022407787059
57.53,8.16661043887905,57.53,7.99538436329347,57.53,7.58374748710693,57.53,7.77215948681362,57.53,9.04278042017585
57.64,8.16661043887905,57.64,7.97569119788589,57.64,7.54465556943977,57.64,7.73300549408514,57.64,8.98431398908258
57.76,8.18614812103779,57.76,7.99538436329347,57.76,7.54465556943977,57.76,7.71342820212537,57.76,9.00380260238332
57.85,8.12753566575264,57.85,7.97569119788589,57.85,7.56420152827335,57.85,7.71342820212537,57.85,9.06226903347659
57.95,8.14573204508821,57.95,7.93499826435966,57.95,7.50432855573236,57.95,7.71215829297125,57.95,8.9828348461802
58.08,8.10666370508217,58.08,7.8759290858517,58.08,7.46524366510192,58.08,7.71215829297125,58.08,9.04129165158511
58.17,8.06626736583908,58.17,7.93369209180586,58.17,7.44447529445806,58.17,7.67174710837267,58.17,9.0008383875348
58.27,8.06759536507613,58.27,7.9153083411591,58.27,7.44570092423983,58.27,7.59471387999295,58.27,8.92437804077529
58.37,8.12485993384622,58.37,7.83525927249758,58.37,7.46401481840807,58.37,7.59346372132958,58.37,8.90342681005658
58.49,7.98814354783194,58.49,7.83525927249758,58.49,7.42493636150448,58.49,7.57389287456881,58.49,8.88394461276023
58.59,8.00767479783194,58.59,7.81557259043664,58.59,7.44447529445806,58.59,7.53475177204369,58.59,8.86446241546387
58.68,7.9295509798248,58.68,7.75651313525024,58.68,7.34677885670086,58.68,7.47603923176138,58.68,8.78653303528201
58.81,7.94908163882837,58.81,7.7958859083757,58.81,7.36631838065087,58.81,7.49561007852215,58.81,8.80601523257837
58.9,7.90871847415882,58.9,7.71586966912521,58.9,7.30649768412909,58.9,7.47480881055799,58.9,8.70717037602591
59,7.8501349585323,59,7.69618622713702,59,7.28696137603227,59,7.43567355905316,59,8.72664936690402
59.13,7.86966299404086,59.13,7.67650278514884,59.13,7.22835304264095,59.13,7.41610593330074,59.13,8.76560734866023
59.19,7.82931894925055,59.19,7.67523957916148,59.19,7.30529536428639,59.19,7.41488557688585,59.19,8.7057375686578
59.26,7.86707343728073,59.26,7.63462344946153,59.26,7.28456356050873,59.26,7.3941044351207,59.26,8.68483206085139
59.38,7.80850919888871,59.38,7.5952695193792,59.38,7.18691534409297,59.38,7.37454324820532,59.38,8.68483206085139
59.5,7.7902698959024,59.5,7.59651935803633,59.5,7.16856489277616,59.5,7.39532117108172,59.5,8.7057375686578
59.63,7.74994555120142,59.63,7.61494648442037,59.63,7.16738546452793,59.63,7.33542146507928,59.63,8.58746856411231
59.72,7.76946716090033,59.72,7.55591558929686,59.72,7.16738546452793,59.72,7.31586027816389,59.72,8.60694173602391
59.85,7.76818907780099,59.85,7.55467263558913,59.85,7.14668034803549,59.85,7.3342147828182,59.85,8.58605591917661
59.95,7.7291528716492,59.95,7.55467263558913,59.95,7.10762760487225,59.95,7.31465681373255,59.95,8.52764778531807
60.04,7.71090292250831,60.04,7.49688528487808,60.04,7.14785617566761,60.04,7.25717671741775,60.04,8.5095776485801
60.13,7.67059826711775,60.13,7.49565204169912,60.13,7.12715368115009,60.13,7.21686696830428,60.13,8.52764778531807
60.23,7.69011666549742,60.23,7.43663085720156,60.23,7.10762760487225,60.23,7.25598290647558,60.23,8.52764778531807
60.35,7.64856407044271,60.35,7.41451833213475,60.35,7.06624946456598,60.35,7.13628783330673,60.35,8.46645358508783
60.44,7.59127767462479,60.44,7.43540772712637,60.44,7.06741167664897,60.44,7.21567998360554,60.44,8.4873122696537
60.57,7.69011666549742,60.57,7.41695771964326,60.57,7.06857427110145,60.57,7.17775162074052,60.57,8.41083033638587
60.69,7.63156265157352,60.69,7.37761026331156,60.69,6.99046878477497,60.69,7.11907771348356,60.69,8.39136095843302
60.78,7.55100594713403,60.78,7.37518381691678,60.78,7.0272095655873,60.78,7.1558393699079,60.78,8.38860109625298
60.89,7.64856407044271,60.89,7.37518381691678,60.89,6.96864942191264,60.89,7.0971847601044,60.89,8.38860109625298
60.98,7.53273270078488,60.98,7.35672634821558,60.98,7.00884190137172,60.98,7.09835206022942,60.98,8.40944697613318
61.07,7.59002931454017,61.07,7.29651537689416,61.07,6.96864942191264,61.07,7.05808168690207,61.07,8.27182265820734
61.18,7.54976441376555,61.18,7.29531568676313,61.18,6.9479866041852,61.18,6.99827682442284,61.18,8.30938215746622
61.28,7.5119825797279,61.28,7.27684811928518,61.28,6.92960952293396,61.28,7.01897861369973,61.28,8.3302115820235
61.4,7.47173051136611,61.4,7.31497912037328,61.4,6.9479866041852,61.4,7.01782455605197,61.4,8.23154246910634
61.53,7.47173051136611,61.53,7.21665959105763,61.53,6.88943667926209,61.53,7.01782455605197,61.53,8.19262292008452
61.62,7.45222233092436,61.62,7.23632361498401,61.62,6.92847015931624,61.62,7.05692119994269,61.62,8.21208269459543
61.71,7.49123928212408,61.71,7.23632361498401,61.71,6.85040260889172,61.71,6.95918018053212,61.71,8.21208269459543
61.84,7.39369660896667,61.84,7.25598763891038,61.84,6.85040260889172,61.84,6.90053521469603,61.84,8.19262292008452
61.94,7.41320537972465,61.94,7.17733213352111,61.94,6.81136912883757,61.94,6.92008353664139,61.94,8.13424300623555
62.02,7.41198670384437,62.02,7.19581243453761,62.02,6.86879028033466,62.02,6.89940081798146,62.02,8.17181894806434
62.14,7.41198670384437,62.14,7.15649144214288,62.14,6.81024939036496,62.14,6.87985570963498,62.14,8.17181894806434
62.25,7.37297616674151,62.25,7.17615223344984,62.25,6.81024939036496,62.25,6.93849103467444,62.25,8.15236237259576
62.33,7.39126607096241,62.33,7.09634248224761,62.33,6.828640639314,62.33,6.85918300257033,62.33,8.11211565012315
62.45,7.27425428574105,62.45,7.09634248224761,62.45,6.78961940065643,62.45,6.85918300257033,62.45,8.11211565012315
62.56,7.31205656066479,62.56,7.0755219504477,62.56,6.71047513265654,62.56,6.83851709015056,62.56,8.0524313852621
62.68,7.31205656066479,62.68,7.03621388196173,62.68,6.72998254563869,62.68,6.79944031154086,62.68,8.03298120472383
62.77,7.33035046419519,62.77,7.0547088506831,62.77,6.72887673187831,62.77,6.79832308506837,62.77,8.05110827790336
62.86,7.23287249051131,62.86,6.97610445139278,62.86,6.70937252418913,62.86,6.77878761118212,62.86,8.01221430860485
62.95,7.29135915673599,62.95,7.03505775086052,62.95,6.70937252418913,62.95,6.75925213729588,62.95,7.91497820550208
63.06,7.21337713174584,63.06,7.01540665103794,63.06,6.68986831649996,63.06,6.75925213729588,63.06,7.99276673402735
63.16,7.2547519281227,63.16,7.03737039311919,63.16,6.67255745505025,63.16,6.68330653045627,63.16,7.95648745005584
63.28,7.25355969280173,63.28,6.99690522345057,63.28,6.69096771967441,63.28,6.72128557427105,63.28,7.97463007308383
63.4,7.19506341496387,63.4,6.99690522345057,63.4,6.65195348373532,63.4,6.72128557427105,63.4,7.91627894144382
63.5,7.21337713174584,63.5,6.9564533515702,63.5,6.65086049104985,63.5,6.72018118952339,63.5,7.89553122085283
63.59,7.19388118305211,63.59,6.97610445139278,63.59,6.65086049104985,63.59,6.70064571563714,63.59,7.97331974937809
63.7,7.13656713712601,63.7,6.9575965649394,63.7,6.63244607075318,63.7,6.58451537407409,63.7,7.79957726818901
63.8,7.09640320936823,63.8,6.87784954220813,63.8,6.55334063246047,63.8,6.56389798836167,63.8,7.83718967697681
63.92,7.15488987559291,63.92,6.91715174185329,63.92,6.63135628336068,63.92,6.64203929397841,63.92,7.83718967697681
64.01,7.11589856813371,64.01,6.91715174185329,64.01,6.63135628336068,64.01,6.58343346224792,64.01,7.77884872302905
64.11,7.13422228181563,64.11,6.87671961785423,64.11,6.63026685403862,64.11,6.56281964139463,64.11,7.75812698862813
64.22,7.11356088792079,64.22,6.8363007764189,64.22,6.53168996076841,64.22,6.56174164868087,64.22,7.75685265765102
64.31,7.13305043190075,64.31,6.8363007764189,64.31,6.57068497155838,64.31,6.56174164868087,64.31,7.77629325367194
64.44,7.09407193367528,64.44,6.89523470883688,64.44,6.55118776103062,64.44,6.56174164868087,64.44,7.81517444571378
64.52,7.0550934354498,64.52,6.87559006469755,64.52,6.53168996076841,64.52,6.52268353630515,64.52,7.69853027985381
64.64,7.01611493722433,64.64,6.79701207787469,64.64,6.53168996076841,64.64,6.48362542392943,64.64,7.71797087587473
64.74,6.95650482627333,64.74,6.79589580064068,64.74,6.49162865092277,64.74,6.50208646328692,64.74,7.67782854248229
64.82,6.97713643899885,64.82,6.77736743373536,64.82,6.47319714971623,64.82,6.44456790128815,64.82,7.67908968383289
64.94,7.07458238969532,64.94,6.77736743373536,64.94,6.51219275024065,64.94,6.48362542392943,64.94,7.67908968383289
65.04,6.99662598297881,65.04,6.71843409105183,65.04,6.53168996076841,65.04,6.44456790128815,65.04,7.6402079020566
65.16,7.03560448120429,65.16,6.79701207787469,65.16,6.45369993918847,65.16,6.40550978891243,65.16,7.65964849807752
65.25,6.95650482627333,65.25,6.75661296486462,65.25,6.4721340527956,65.25,6.44350950616559,65.25,7.63895314628356
65.36,6.95650482627333,65.36,6.73697154697659,65.36,6.43314544617886,65.36,6.38493195940667,65.36,7.60007833972243
65.45,7.01496267660071,65.45,6.71733071872615,65.45,6.39415683956212,65.45,6.42398365724595,65.45,7.65839054956412
65.57,6.91866898652786,65.57,6.73807814545671,65.57,6.39520712813629,65.57,6.38598073272457,65.57,7.6402079020566
65.7,6.8785606327451,65.7,6.67804788295009,65.7,6.41365084805169,65.7,6.34588026156739,65.7,7.54176554024313
65.78,6.8785606327451,65.78,6.67804788295009,65.78,6.39415683956212,65.78,6.26777686588883,65.78,7.502890733682
65.87,6.91639684564559,65.87,6.65731313066714,65.87,6.37361549886657,65.87,6.32531560239937,65.87,7.48222393078999
66,6.87743114824055,66,6.63767493797088,66,6.37361549886657,66,6.26674767428523,66,7.48222393078999
66.09,6.83846545083551,66.09,6.63767493797088,66.09,6.37361549886657,66.09,6.32531560239937,66.09,7.54052715509695
66.2,6.83846545083551,66.2,6.63767493797088,66.2,6.29565108977319,66.2,6.30579295969465,66.2,7.44335550761253
66.29,6.81786337910713,66.29,6.63658518670869,66.29,6.3335932954208,66.29,6.32427713324776,66.29,7.48099552429996
66.38,6.83734273445875,66.38,6.63658518670869,66.38,6.29461749084202,66.38,6.20716109743643,66.38,7.40327085107638
66.5,6.85682267925435,66.5,6.57768087046221,66.5,6.3335932954208,66.5,6.20716109743643,66.5,7.44213348241016
66.62,6.79615189535394,66.62,6.57552177613414,66.62,6.29255131080236,66.62,6.20512362456676,66.62,7.4008407605295
66.71,6.77890407895992,66.71,6.55804590189872,66.71,6.37256909999958,66.71,6.2657188206201,66.71,7.38383983013149
66.8,6.7594247236083,66.8,6.57768087046221,66.8,6.27512929383064,66.8,6.18764165989388,66.8,7.34497778824169
66.89,6.7972674816795,66.89,6.53733765511242,66.89,6.31306863992314,66.89,6.10856102661307,66.89,7.34377211230797
67.01,6.7972674816795,67.01,6.55696940060162,67.01,6.29358423124077,67.01,6.14759349347837,67.01,7.36319994365652
67.15,6.6998855138791,67.15,6.49807416413401,67.15,6.19616041978722,67.15,6.12807726004572,67.15,7.32434369161219
67.24,6.75831516603712,67.24,6.49807416413401,67.24,6.27409923321117,67.24,6.12807726004572,67.24,7.28548802891509
67.39,6.71936226104752,67.39,6.49807416413401,67.39,6.25461423518157,67.39,6.08904479318042,67.39,7.30491586026364
67.48,6.71825946074208,67.48,6.51663620571551,67.48,6.23410649975924,67.48,6.10755847269438,67.48,7.26486767168478
67.57,6.75831516603712,67.57,6.43917951701363,67.57,6.21564482846959,67.57,6.10856102661307,67.57,7.26606019756654
67.63,6.69878591015123,67.63,6.45775122454739,67.63,6.25358771060661,67.63,6.04901997082145,67.63,7.22601779683593
67.76,6.65983939822005,67.76,6.45775122454739,67.76,6.19514348881401,67.76,6.04901997082145,67.76,7.22601779683593
67.84,6.64036643687971,67.84,6.45775122454739,67.84,6.21462469966138,67.84,6.04901997082145,67.84,7.20659315403676
67.95,6.65983939822005,67.95,6.43812270107452,67.95,6.19514348881401,67.95,6.0880454423199,67.95,7.20659315403676
68.1,6.6782169013956,68.1,6.39781562694562,68.1,6.19412689158906,68.1,6.02851752348923,68.1,7.20541058213751
68.19,6.61980701451615,68.19,6.41744092945961,68.19,6.21360490565093,68.19,6.04802735185676,68.19,7.166567671545
68.28,6.65765405305247,68.28,6.45563219215214,68.28,6.13468499485777,68.28,6.00802180378535,68.28,7.16539186060627
68.4,6.61980701451615,68.4,6.37819032443164,68.4,6.13569167109585,68.4,5.95047821001914,68.4,7.06945921675612
68.49,6.60033665945379,68.49,6.31931500604349,68.49,6.11621306788017,68.49,5.96998803838666,68.49,7.08888126120618
68.6,6.60033665945379,68.6,6.37819032443164,68.6,6.0967344646645,68.6,5.93096838165161,68.6,7.06945921675612
68.67,6.59925374941943,68.67,6.29865612031318,68.67,6.09573418009277,68.67,5.94950192155154,68.67,7.10713646503131
68.81,6.61872091000187,68.81,6.31827820292519,68.81,6.07625936176742,68.81,5.92999529414027,68.81,7.08771819619203
68.89,6.57870781648043,68.89,6.33686060373183,68.89,6.07526260006109,68.89,5.90951909837816,68.89,7.06713984037266
69.05,6.6176351618211,69.05,6.27800401243251,69.05,6.05579038746327,69.05,5.92902252588335,69.05,7.02830967351723
69.13,6.57870781648043,69.13,6.33686060373183,69.13,6.07526260006109,69.13,5.90951909837816,69.13,7.04772475694495
69.25,6.52031650398918,69.25,6.31724173996539,69.25,6.07526260006109,69.25,5.87051283232827,69.25,7.00889459008951
69.34,6.52031650398918,69.34,6.27800401243251,69.34,6.03631817486545,69.34,5.85100940482308,69.34,7.02830967351723
69.43,6.55924384932984,69.43,6.21914801009371,69.43,6.03631817486545,69.43,5.85100940482308,69.43,6.93123366741812
69.54,6.52031650398918,69.54,6.31724173996539,69.54,6.01684655122814,69.54,5.90951909837816,69.54,6.98947950666179
69.63,6.5008531257991,69.63,6.25838514866607,69.63,6.05579038746327,69.63,5.81200254981268,69.63,6.95064875084584
69.75,6.44140574122157,69.75,6.19851233000017,69.75,6.01585969760321,69.75,5.83054952234374,69.75,6.94950873956967
69.86,6.46086592712393,69.86,6.27697432504323,69.86,6.01585969760321,69.86,5.79154906504615,69.86,6.89127245352253
69.96,6.49872099948694,69.96,6.23672070564963,69.96,5.99540734147105,69.96,5.7516052576981,69.96,6.87073365046761
70.07,6.46086592712393,70.07,6.17889668402342,70.07,5.99639067874208,70.07,5.79154906504615,70.07,6.91068494144752
70.16,6.40143484864402,70.16,6.19749584716481,70.16,5.95647627789457,70.16,5.73210822685656,70.16,6.85132493472878
70.28,6.42089184330566,70.28,6.21710827640722,70.28,5.97594210406648,70.28,5.77110228853964,70.28,6.81250691448377
70.37,6.42089184330566,70.37,6.1778834179224,70.37,5.93701045172266,70.37,5.7516052576981,70.37,6.89014236620643
70.47,6.40248478055294,70.47,6.17889668402342,70.47,5.9379842110226,70.47,5.69404851066611,70.47,6.87186055446145
70.57,6.3809308678933,70.57,6.13765205696842,70.57,5.93603701174041,70.57,5.6726874693326,70.57,6.75317332657746
70.68,6.3809308678933,70.68,6.11804343207632,70.68,5.93603701174041,70.68,5.71167454882762,70.68,6.75317332657746
70.81,6.38197726521503,70.81,6.11904671896252,70.81,5.89807938814618,70.81,5.73210822685656,70.81,6.73487146276111
70.92,6.30311506135287,70.92,6.13765205696842,70.92,5.89711233135193,70.92,5.65319363524969,70.92,6.83079604909014
71.01,6.32256886582028,71.01,6.11804343207632,71.01,5.89711233135193,71.01,5.6726874693326,71.01,6.69495613752526
71.13,6.36252027055339,71.13,6.11904671896252,71.13,5.89807938814618,71.13,5.6736177230993,71.13,6.73487146276111
71.22,6.28366066821465,71.22,6.07882500495049,71.22,5.87764969682228,71.22,5.63369980116678,71.22,6.75317332657746
71.29,6.26420686374725,71.29,6.07882500495049,71.29,5.89711233135193,71.29,5.59471213300095,71.29,6.69495613752526
71.39,6.28366066821465,71.39,6.05921579138757,71.39,5.85818765096345,71.39,5.59471213300095,71.39,6.71436167098572
71.53,6.30311506135287,71.53,6.01999795293256,71.53,5.83872501643381,71.53,5.57521829891804,71.53,6.67555060406479
71.65,6.32153237912096,71.65,6.03861647838567,71.65,5.77939010517117,71.65,5.55481369033269,71.65,6.67445625150675
71.74,6.24372874069582,71.74,6.11704047413663,71.74,5.85722729233215,71.74,5.55481369033269,71.74,6.67445625150675
71.83,6.22427812537669,71.83,6.05822247732341,71.83,5.87668614769166,71.83,5.51583300216219,71.83,6.57744390180509
71.94,6.26317994458926,71.94,6.05822247732341,71.94,5.83776784839833,71.94,5.53532305196028,71.94,6.69385860373222
72.04,6.2416822874868,72.04,6.0366372530568,72.04,5.8164019759975,72.04,5.53350878678429,72.04,6.65287262956667
72.11,6.20279380716996,72.11,6.0366372530568,72.11,5.85530751937498,72.11,5.49454087497831,72.11,6.59468406253464
72.23,6.20381049194412,72.23,5.97881893589497,72.23,5.81735532823091,72.23,5.51492891545474,72.23,6.59576498108284
72.32,6.20381049194412,72.32,5.99842172126134,72.32,5.81735532823091,72.32,5.5344157706864,72.32,6.67336225769401
72.47,6.20381049194412,72.47,6.03762670351624,72.47,5.83681099413699,72.47,5.49544147174523,72.47,6.55696604853833
72.58,6.22325791916043,72.58,6.01802450662771,72.58,5.79789907384698,72.58,5.47595402803572,72.58,6.59576498108284
72.67,6.16592569084499,72.67,5.96019307120902,72.67,5.75993124981166,72.67,5.49634236378978,72.67,6.59684625403056
72.76,6.1628947589963,72.76,5.95726326960102,72.76,5.71820013237071,72.76,5.47415951581943,72.76,6.51603165082445
72.88,6.14445990993189,72.88,5.9190404043485,72.88,5.77749584423863,72.88,5.47505662488462,72.88,6.55589148838616
72.96,6.12501566977347,72.96,5.9190404043485,72.96,5.75804336674059,72.96,5.45557237479093,72.96,6.53649549550262
73.07,6.16390473847172,73.07,5.95823955004507,73.07,5.73859030086116,73.07,5.45557237479093,73.07,6.53649549550262
73.19,6.10557084123365,73.19,5.93863997719678,73.19,5.73859030086116,73.19,5.39711962450986,73.19,6.4783069284706
73.28,6.10557084123365,73.28,5.89944141988162,73.28,5.73859030086116,73.28,5.45557237479093,73.28,6.53649549550262
73.4,6.08612660107523,73.4,5.87984184703334,73.4,5.75804336674059,73.4,5.39711962450986,73.4,6.49770350973554
73.49,6.08512936584647,73.49,5.93766690821805,73.49,5.69875084223586,73.49,5.41571634324609,73.49,6.4772454329883
73.63,6.06568831170151,73.63,5.89847477373712,73.63,5.73765001079056,73.63,5.3377927014333,73.63,6.45785261821272
73.72,6.02581826165099,73.72,5.93669415806926,73.72,5.71726333680512,73.72,5.3758733706893,73.72,6.49557451120679
73.81,6.0268056151266,73.81,5.89847477373712,73.81,5.65985108539617,73.81,5.25986847133552,73.81,6.41906698866156
73.92,6.04624666927156,73.92,5.83968568958823,73.92,5.65985108539617,73.92,5.27934952885996,73.92,6.43845980343714
74.03,6.0268056151266,74.03,5.87887841235416,74.03,5.65985108539617,74.03,5.31831164390885,74.03,6.43845980343714
74.1,6.00637980428697,74.1,5.81913584043853,74.1,5.67837054098446,74.1,5.3369182268754,74.1,6.39862573447348
74.24,6.02581826165099,74.24,5.83872899140842,74.24,5.6978172329891,74.24,5.27848462887162,74.24,6.41801537218242
74.33,5.98596127304193,74.33,5.81818266503469,74.33,5.63855399778539,74.33,5.31656936327203,74.33,6.3781905887547
74.45,5.9091892820327,74.45,5.85832214237831,74.45,5.63947774516379,74.45,5.31744036087414,74.45,6.37923550857592
74.57,5.9665259997004,74.57,5.83777260664324,74.57,5.61911049115208,74.57,5.23867066117756,74.57,6.35880412707159
74.64,5.94709131445115,74.64,5.79859272342613,74.64,5.63855399778539,74.64,5.21919598565394,74.64,6.30064415393
74.77,5.98596127304193,74.77,5.81818266503469,74.77,5.59966757261105,74.77,5.23867066117756,74.77,6.33941766538848
74.88,5.9665259997004,74.88,5.87695248986035,74.88,5.61911049115208,74.88,5.27762001222479,74.88,6.28125769224689
74.96,5.94611733945697,74.96,5.75847018994094,74.96,5.57931017405734,74.96,5.21834122050725,74.96,6.29961227640725
75.06,5.94611733945697,75.06,5.79764306854185,75.06,5.55986985175201,75.06,5.19886973441624,75.06,6.2608457030121
75.17,5.92765604110962,75.17,5.7594134283013,75.17,5.59966757261105,75.17,5.19972131013032,75.17,6.26187123056379
75.29,5.92668524909503,75.29,5.73888345664251,75.29,5.52098979513732,75.29,5.21834122050725,75.29,6.28022898970968
75.38,5.92668524909503,75.38,5.71929672334408,75.38,5.59875049636267,75.38,5.12098437804817,75.38,6.20269525492344
75.49,5.88782224436307,75.49,5.73888345664251,75.49,5.52098979513732,75.49,5.10151289195716,75.49,6.22207854162101
75.61,5.86742922553314,75.61,5.73794373444559,75.61,5.55895944240999,75.61,5.13961413237823,75.61,6.24044039856174
75.72,5.8868581339579,75.72,5.69877668236757,75.72,5.52008575226927,75.72,5.12014583467531,75.72,6.20167958515842
75.81,5.84800090500806,75.81,5.71836020840658,75.81,5.52008575226927,75.81,5.12014583467531,75.81,6.22105969791025
75.9,5.80914367605821,75.9,5.71836020840658,75.9,5.50064861324908,75.9,5.1006775369724,75.9,6.24044039856174
75.99,5.8285719965833,75.99,5.67919315632856,75.99,5.50064861324908,75.99,5.12014583467531,75.99,6.14353924690296
76.13,5.81009505890722,76.13,5.64095037814631,76.13,5.52098979513732,76.13,5.06256991977515,76.13,6.14454539483072
76.23,5.77028644710837,76.23,5.67919315632856,76.23,5.50064861324908,76.23,5.06174094156657,76.23,6.14353924690296
76.3,5.80724184476797,76.3,5.63818022736314,76.3,5.51827855444565,76.3,5.09900764745301,76.3,6.10277981558068
76.45,5.80724184476797,76.45,5.61860311269294,76.45,5.51827855444565,76.45,5.06008379933656,76.45,6.10277981558068
76.54,5.76745324590684,76.54,5.63725744827519,76.54,5.4590932005602,76.54,5.03979689624801,76.54,6.1598933763358
76.63,5.76839733712405,76.63,5.61860311269294,76.63,5.47941759100002,76.63,5.06008379933656,76.63,6.10277981558068
76.74,5.74991659774789,76.74,5.63910330860534,76.74,5.46088072289175,76.74,5.04144712443932,76.74,6.0650250812429
76.84,5.72955282948013,76.84,5.63818022736314,76.84,5.44055662755439,76.84,4.98223610310367,76.84,6.06403227962541
76.95,5.74803446465534,76.95,5.57853571659586,76.95,5.40081100192097,76.95,5.02033815744741,76.95,6.02429802107652
77.06,5.72955282948013,77.06,5.59902599802275,77.06,5.42112585197798,77.06,5.00169802716189,77.06,6.04465792394057
77.18,5.71013086951177,77.18,5.55987176868236,77.18,5.34340333737952,77.18,5.00169802716189,77.18,5.98653662000767
77.29,5.72861509579282,77.29,5.55896180603609,77.29,5.42023859733772,77.29,5.00087941864681,77.29,6.02429802107652
77.38,5.67128636186786,77.38,5.57944888335255,77.38,5.42112585197798,77.38,4.96277476675265,77.38,5.96716226432283
77.5,5.67035816442729,77.5,5.51981457252756,77.5,5.34252880328175,77.5,4.96196252865661,77.5,5.9468150448728
77.59,5.65001407967611,77.59,5.57762284869919,77.59,5.39992721677911,77.59,5.01951663263029,77.59,6.02331220893104
77.67,5.62967723943947,77.67,5.51800835048157,77.67,5.3796230700334,77.67,4.90198173558194,77.67,5.94486909754136
77.77,5.61210123306176,77.77,5.46109284084824,77.77,5.34252880328175,77.77,4.94250378985601,77.77,5.92744444772462
77.91,5.59176668143632,77.91,5.53848202121807,77.91,5.34165455540034,77.91,4.92223944721789,77.91,5.90710705727738
78,5.59176668143632,78,5.51891131372008,78,5.34165455540034,78,4.94169500180334,78,5.84900418769312
78.11,5.5908517981442,78.11,5.45930583402859,78.11,5.34078059359481,78.11,4.9214341069942,78.11,5.90614058033738
78.23,5.57235107786134,78.23,5.4601991912261,78.23,5.30280631031945,78.23,4.92223944721789,78.23,5.88773962992091
78.35,5.5908517981442,78.35,5.47887333951292,78.35,5.2825180537744,78.35,4.86307699275744,78.35,5.88677632173539
78.43,5.59176668143632,78.43,5.49934060622209,78.43,5.30280631031945,78.43,4.86387278346154,78.43,5.79090131810886
78.52,5.53351928319653,78.52,5.42105836374498,78.52,5.30280631031945,78.52,4.90278389263244,78.52,5.81026933298019
78.62,5.59176668143632,78.62,5.42105836374498,78.62,5.26395806523855,78.62,4.86387278346154,78.62,5.84900418769312
78.73,5.5529348867715,78.73,5.42105836374498,78.73,5.28338248153643,78.73,4.86387278346154,78.73,5.82963676033665
78.84,5.51320091555366,78.84,5.42017141047866,78.84,5.2825180537744,78.84,4.86307699275744,78.84,5.78995385388796
78.96,5.47348053148546,78.96,5.39972044287999,78.96,5.24281778646761,78.96,4.80393418823328,78.96,5.78900669965046
79.04,5.53261392991066,79.04,5.42017141047866,79.04,5.32135994279425,79.04,4.84362462134518,79.04,5.77058959528597
79.16,5.49378848861539,79.16,5.42017141047866,79.16,5.24367557733581,79.16,4.80472017223005,79.16,5.75122533668398
79.25,5.49288978282632,79.25,5.39972044287999,79.25,5.26223584764809,79.25,4.80393418823328,79.25,5.73092342699773
79.37,5.47348053148546,79.37,5.4388484645939,79.37,5.24281778646761,79.37,4.82338337751378,79.37,5.73092342699773
79.46,5.43466144148109,79.46,5.36059183384344,79.46,5.20398225142927,79.46,4.7455869140531,79.46,5.71156174879085
79.52,5.47258529423791,79.52,5.34015395596413,79.52,5.16430190992767,79.52,4.76425644496674,79.52,5.71062757120681
79.66,5.43377255344683,79.66,5.35971506056345,79.66,5.18371620788204,79.66,4.82259446953578,79.66,5.71062757120681
79.77,5.45407069282195,79.77,5.32146322480688,79.77,5.20398225142927,79.77,4.76503580967228,79.77,5.69220065790661
79.89,5.35702326147236,79.89,5.36059183384344,79.89,5.16514671639094,79.89,4.7261377247726,79.89,5.63411738525388
79.98,5.41436588943799,79.98,5.32059285136482,79.98,5.20313109306299,79.98,4.76425644496674,79.98,5.6912696470041
80.1,5.41436588943799,80.1,5.30103233399208,80.1,5.18371620788204,80.1,4.72536472220068,80.1,5.65255379859868
80.19,5.41436588943799,80.19,5.34015395596413,80.19,5.16430190992767,80.19,4.72536472220068,80.19,5.65255379859868
80.31,5.41348046574389,80.31,5.3001654439947,80.31,5.12463395933036,80.31,4.68570631617196,80.31,5.6129193192442
80.39,5.35527116882756,80.39,5.31972276259108,80.39,5.16345737977069,80.39,4.72459197245052,80.39,5.6129193192442
80.49,5.31559550362718,80.49,5.27974412957936,80.49,5.1237960531892,80.49,4.72381947539812,80.49,5.5732983878397
80.59,5.33586826556563,80.59,5.26104963254082,80.59,5.12463395933036,80.59,4.72459197245052,80.59,5.6129193192442
80.72,5.33586826556563,80.72,5.31972276259108,80.72,5.14404566955053,80.72,4.68570631617196,80.72,5.57420980213043
80.83,5.31559550362718,80.83,5.29929883747998,80.83,5.08497956762848,80.83,4.72381947539812,80.83,5.55394679389343
80.95,5.31646477517315,80.95,5.28060753826776,80.95,5.10522283624074,80.95,4.68570631617196,80.95,5.55485504357354
81.05,5.29706187191122,81.05,5.3001654439947,81.05,5.12463395933036,81.05,4.68570631617196,81.05,5.5354996978861
81.13,5.31559550362718,81.13,5.26018942167873,81.13,5.08497956762848,81.13,4.64606117240023,81.13,5.53459461291261
81.21,5.27679545503387,81.21,5.26018942167873,81.21,5.08497956762848,81.21,4.66550052801175,81.21,5.55394679389343
81.33,5.27593281068941,81.33,5.29843251430891,81.33,5.10355364453362,81.33,4.62586516860031,81.33,5.5530388411725
81.41,5.25739572425449,81.41,5.16241646921016,81.41,5.08497956762848,81.41,4.62662152327144,81.41,5.47653983107381
81.55,5.2961957728478,81.55,5.20152588501141,81.55,5.0655716183654,81.55,4.58774222501386,81.55,5.45718765009299
81.68,5.23799540644056,81.68,5.20152588501141,81.68,5.0655716183654,81.68,4.62662152327144,81.68,5.47653983107381
81.77,5.23713910508263,81.77,5.22022646982944,81.77,5.02593277782085,81.77,4.5869922262849,81.77,5.45629551544364
81.88,5.25739572425449,81.88,5.20152588501141,81.88,5.04616308206777,81.88,4.54886322027355,81.88,5.43783605614673
81.98,5.23713910508263,81.98,5.18112403452829,81.98,5.02593277782085,81.98,4.56755575512719,81.98,5.41759865470296
82.06,5.21774254574853,82.06,5.22022646982944,82.06,5.06474350464653,82.06,4.56755575512719,82.06,5.41759865470296
82.17,5.19834598641443,82.17,5.18112403452829,82.17,4.92890713463383,82.17,4.48981016396566,82.17,5.4369470850733
82.27,5.17894884014175,82.27,5.18112403452829,82.27,4.98712263793376,82.27,4.52868310628107,82.27,5.41759865470296
82.38,5.13931496534004,82.38,5.14118053811198,82.38,4.98630748222308,82.38,4.58624247273369,82.38,5.35867674645123
82.5,5.19749630580207,82.5,5.14118053811198,82.5,4.96690529065781,82.5,4.58624247273369,82.5,5.39736786895107
82.62,5.19749630580207,82.62,5.16072885349613,82.62,5.00570967378835,82.62,4.54737617770399,82.62,5.43605840460827
82.71,5.11992157641446,82.71,5.12163222272784,82.71,4.90869959622597,82.71,4.48907629502745,82.71,5.33933147862263
82.83,5.15870894110826,82.83,5.10208390734369,82.83,4.92810149436992,82.83,4.50850958925296,82.83,5.33933147862263
82.92,5.12075857520086,82.92,5.06381555474768,82.92,4.87069192480319,82.92,4.52868310628107,82.92,5.32085591591268
83.01,5.13847507075508,83.01,5.08170556331292,83.01,4.94669513818458,83.01,4.56606284590833,83.01,5.33845889625972
83.12,5.06174082279508,83.12,5.04343954803389,83.12,4.92810149436992,83.12,4.46964329422326,83.12,5.28129508829419
83.22,5.07947371034428,83.22,5.08087521926663,83.22,4.90709544603112,83.22,4.44875568300428,83.22,5.3182476532088
83.33,5.09886076156106,83.33,5.11995848670734,83.33,4.88769988837677,83.33,4.44875568300428,83.33,5.33758659905445
83.42,5.11908485120178,83.42,5.08170556331292,83.42,4.869099935287,83.42,4.50777278428659,83.42,5.31911678993918
83.54,5.1182483994287,83.54,5.08087521926663,83.54,4.88769988837677,83.54,4.46818262648005,83.54,5.22155233732969
83.63,5.09969404490173,83.63,5.06216044261996,83.63,4.869099935287,83.63,4.48834266595488,83.63,5.18372087220194
83.75,5.07947371034428,83.75,5.06133329222084,83.75,4.88769988837677,83.75,4.42932873952852,83.75,5.22155233732969
83.85,5.02131197004307,83.85,5.02224943812927,83.85,4.82951292208826,83.85,4.42932873952852,83.85,5.24089128317534
83.92,5.02131197004307,83.92,5.00270751108348,83.92,4.84890847974262,83.92,4.40990179605275,83.92,5.22155233732969
84.04,5.02131197004307,84.04,5.04179136517505,84.04,4.90709544603112,84.04,4.42932873952852,84.04,5.22155233732969
84.14,5.03987551218923,84.14,5.04096767764603,84.14,4.82872391491262,84.14,4.42860511124237,84.14,5.16269133612617
84.26,4.98253728095865,84.26,5.02224943812927,84.26,4.82951292208826,84.26,4.40990179605275,84.26,5.20221280483318
84.37,4.98253728095865,84.37,4.98316558403769,84.37,4.8101173644339,84.37,4.46818262648005,84.37,5.22155233732969
84.47,4.98253728095865,84.47,5.02224943812927,84.47,4.82951292208826,84.47,4.40990179605275,84.47,5.24089128317534
84.59,4.92357103558627,84.59,5.00189020876178,84.59,4.82872391491262,84.59,4.42860511124237,84.59,5.1820271225296
84.68,4.92357103558627,84.68,4.98235147431966,84.68,4.80933152594927,84.68,4.38975757192798,84.68,5.1820271225296
84.79,4.98090953274533,84.79,4.96200267414142,84.79,4.84732438680575,84.79,4.36962022196196,84.79,5.16184803469917
84.88,4.9615282286372,84.88,4.98153763056365,84.88,4.8085459441907,84.88,4.36962022196196,84.88,5.16184803469917
85,4.94295491950175,85,4.8846586819416,85,4.80933152594927,85,4.38975757192798,85,5.1240191767643
85.07,4.94214751098828,85.07,4.98153763056365,85.07,4.82793516549823,85.07,4.330779028211,85.07,5.06518430827314
85.18,4.94214751098828,85.18,4.92293158837852,85.18,4.8085459441907,85.18,4.35019962508648,85.18,5.10384956425986
85.31,4.84524274982525,85.31,4.88386079584523,85.31,4.71159925119386,85.31,4.38904052560783,85.31,5.0845169362665
85.43,4.90338548923122,85.43,4.98153763056365,85.43,4.76976720834604,85.43,4.330779028211,85.43,5.0845169362665
85.52,4.88400447835269,85.52,4.90339604549707,85.52,4.75037798703852,85.52,4.330779028211,85.52,5.06518430827314
85.63,4.88400447835269,85.63,4.86432525296379,85.63,4.71159925119386,85.63,4.29193783446004,85.63,5.0265184658272
85.72,4.86462346747417,85.72,4.90339604549707,85.72,4.76976720834604,85.72,4.31135843133552,85.72,5.10384956425986
85.84,4.88320682940963,85.84,4.86353081800495,85.84,4.71082975923711,85.84,4.310654306163,85.84,5.02569754169429
85.93,4.86303475961411,85.93,4.84320747960877,85.93,4.74882658991669,85.93,4.32936466536704,85.93,5.06353010046508
86.03,4.8824094409659,86.03,4.84320747960877,86.03,4.65191185128589,86.03,4.32936466536704,86.03,5.08285641473278
86.15,4.84445143139477,86.15,4.84399846564169,86.15,4.67205764986436,86.15,4.27181974908449,86.15,5.02569754169429
86.25,4.82507358579647,86.25,4.86353081800495,86.25,4.67205764986436,86.25,4.27181974908449,86.25,4.98703860046438
86.36,4.82428569004438,86.36,4.84320747960877,86.36,4.67129474038529,86.36,4.30995041094644,86.36,5.06353010046508
86.44,4.82507358579647,86.44,4.84399846564169,86.44,4.69144370455074,86.44,4.27181974908449,86.44,4.96770912984942
86.57,4.78631789459989,86.57,4.8049340540969,86.57,4.6332852473099,86.57,4.19415034174574,86.57,4.96770912984942
86.69,4.82428569004438,86.69,4.82367860985557,86.69,4.63252866905266,86.69,4.23229368639793,86.69,4.96689794285892
86.78,4.76616164598902,86.78,4.84320747960877,86.78,4.69067762948468,86.78,4.27112219523911,86.78,5.00555057139431
86.87,4.74678696463723,86.87,4.82367860985557,86.87,4.61314577995327,86.87,4.27112219523911,86.87,5.00555057139431
86.94,4.76616164598902,86.94,4.78462028408149,86.94,4.61314577995327,86.94,4.17405121627,86.94,4.92824472805584
87.06,4.74678696463723,87.06,4.74556225144126,87.06,4.61314577995327,87.06,4.19346547069059,87.06,4.92824472805584
87.18,4.78475501528737,87.18,4.76431344021984,87.18,4.61239261329532,87.18,4.23160269967362,87.18,4.94676327562275
87.27,4.74678696463723,87.27,4.80414944696853,87.27,4.65191185128589,87.27,4.19346547069059,87.27,4.96689794285892
87.38,4.66928853236393,87.38,4.72603308855422,87.38,4.55499681952125,87.38,4.23229368639793,87.38,4.92824472805584
87.51,4.72741228328545,87.51,4.78462028408149,87.51,4.63252866905266,87.51,4.25170794081852,87.51,4.88959180638661
87.6,4.70726923581933,87.6,4.72526149131528,87.6,4.57363316420318,87.6,4.17336973852041,87.6,4.86947034673244
87.72,4.68789771768082,87.72,4.76431344021984,87.72,4.61239261329532,87.72,4.19278082326681,87.72,4.86947034673244
87.81,4.70726923581933,87.81,4.70573580994898,87.81,4.53487342202506,87.81,4.19278082326681,87.81,4.85014689469538
87.91,4.70726923581933,87.91,4.6862098354967,87.91,4.51549369747899,87.91,4.15395865377401,87.91,4.85014689469538
88,4.62978316326531,88,4.70573580994898,88,4.51549369747899,88,4.13454756902761,88,4.81150057679322
88.11,4.70650082752096,88.11,4.68544486490651,88.11,4.51475659436154,88.11,4.1532805671508,88.11,4.7720748515436
88.21,4.66852619954232,88.21,4.72526149131528,88.21,4.55425314657113,88.21,4.17336973852041,88.21,4.88879350568352
88.33,4.66776411560508,88.33,4.70496765196499,88.33,4.51475659436154,88.33,4.1532805671508,88.33,4.81071515391095
88.46,4.60965904773125,88.46,4.6463995838277,88.46,4.51475659436154,88.46,4.13387265104377,88.46,4.81071515391095
88.55,4.62902740368919,88.55,4.66592207784803,88.55,4.49538003333564,88.55,4.13387265104377,88.55,4.8686754609429
88.64,4.66852619954232,88.64,4.64715817967812,88.64,4.49611397293292,88.64,4.13454756902761,88.64,4.81150057679322
88.73,4.59029069177331,88.73,4.66592207784803,88.73,4.4760031792716,88.73,4.1532805671508,88.73,4.7913948562082
88.82,4.59029069177331,88.82,4.6463995838277,88.82,4.4372500572198,88.82,4.11446473493673,88.82,4.75275455384085
88.93,4.59029069177331,88.93,4.62687679676922,88.93,4.49538003333564,88.93,4.11446473493673,88.93,4.75275455384085
89.07,4.59029069177331,89.07,4.6463995838277,89.07,4.4566266182457,89.07,4.11446473493673,89.07,4.7720748515436
89.19,4.5701763063824,89.19,4.62612163489608,89.19,4.47527264178519,89.19,4.0943887493557,89.19,4.75197884720565
89.28,4.55081140456313,89.28,4.58708272647617,89.28,4.43652584470842,89.28,4.07498400085371,89.28,4.71334485139981
89.37,4.5701763063824,89.37,4.62612163489608,89.37,4.4558992432468,89.37,4.05557925235172,89.37,4.75197884720565
89.47,4.53144620975354,89.47,4.58708272647617,89.47,4.41715244617004,89.47,4.07498400085371,89.47,4.71334485139981
89.59,4.55081140456313,89.59,4.58708272647617,89.59,4.47527264178519,89.59,4.03617450384973,89.59,4.69402799999205
89.68,4.57092233581537,89.68,4.58783151569042,89.68,4.4372500572198,89.68,4.07564919576081,89.68,4.7141142514735
89.77,4.51208101494395,89.77,4.66516054331599,89.77,4.41715244617004,89.77,4.05557925235172,89.77,4.67471085559397
89.89,4.51208101494395,89.89,4.62612163489608,89.89,4.4558992432468,89.89,4.07498400085371,89.89,4.67471085559397
90.02,4.53070674398824,90.02,4.56681776625314,90.02,4.3776908643673,90.02,4.03551585918527,90.02,4.69326200325576
90.12,4.51208101494395,90.12,4.52852421735115,90.12,4.37840535610296,90.12,4.05557925235172,90.12,4.67471085559397
90.21,4.47262063990941,90.21,4.52778522841228,90.21,4.3776908643673,90.21,4.01611427725451,90.21,4.65463431195315
90.33,4.49198267460236,90.33,4.5082688130206,90.33,4.3583206272843,90.33,3.99671298826625,90.33,4.59669262852798
90.43,4.45325860521647,90.43,4.54730135086146,90.43,4.41643163147582,90.43,4.03551585918527,90.43,4.63532031983059
90.53,4.49198267460236,90.53,4.5082688130206,90.53,4.3776908643673,90.53,3.97731140633549,90.53,4.59669262852798
90.64,4.43317314148608,90.64,4.52704648061845,90.64,4.39634368244208,90.64,3.97666247316428,90.64,4.63456402674529
90.71,4.43389657052353,90.71,4.48875239762892,90.71,4.3583206272843,90.71,3.99671298826625,90.71,4.57737892934793
90.83,4.41453482877309,90.83,4.5082688130206,90.83,4.33895009725879,90.83,3.95790982440473,90.83,4.57737892934793
90.92,4.43317314148608,90.92,4.46850708016014,90.92,4.35760952912354,90.92,3.99606088955712,90.92,4.57663208990767
91.06,4.45253201709358,91.06,4.4880200183831,91.06,4.37697660578281,91.06,3.99606088955712,91.06,4.61525347876432
91.15,4.43317314148608,91.15,4.4880200183831,91.15,4.33824215956956,91.15,3.99606088955712,91.15,4.59594263788864
91.24,4.41453482877309,91.24,4.5082688130206,91.24,4.31957986017578,91.24,3.99671298826625,91.24,4.55806493722537
91.34,4.39302216312562,91.34,4.50606284230799,91.34,4.29810545919304,91.34,3.93658106505962,91.34,4.55583460044317
91.46,4.3557379319508,91.46,4.46850708016014,91.46,4.29950800625102,91.46,3.93786564037861,91.46,4.55732124903199
91.55,4.3944556831658,91.55,4.44899384904246,91.55,4.29950800625102,91.55,3.97666247316428,91.55,4.55732124903199
91.65,4.35502737111362,91.65,4.46777812305081,91.65,4.31817053558845,91.65,3.97601375171679,91.65,4.51796300785748
91.78,4.41381455877329,91.78,4.46850708016014,91.78,4.31887508291029,91.78,3.91846751688048,91.78,4.49938931219438
91.87,4.3750968075583,91.87,4.42948061792479,91.87,4.26077356003777,91.87,3.91846751688048,91.87,4.51870015307005
92,4.33567165356087,92,4.48728787808647,92,4.29880661832178,92,3.89843303701285,92,4.51796300785748
92.1,4.29625936048466,92.1,4.38902223379094,92.1,4.25938364858449,92.1,3.91718926944389,92.1,4.497921561644
92.19,4.35502737111362,92.19,4.35071842144918,92.19,4.26007849094152,92.19,3.93722324794136,92.19,4.4600402287336
92.27,4.31561192101285,92.27,4.40852909947683,92.27,4.25938364858449,92.27,3.87840509261411,92.27,4.47861731297732
92.41,4.33425754017093,92.41,4.40781016126753,92.41,4.25868903285576,92.41,3.89716153243457,92.41,4.49718804540759
92.47,4.31561192101285,92.47,4.42803567236357,92.47,4.25938364858449,92.47,3.85901300419922,92.47,4.497921561644
92.6,4.29555873110428,92.6,4.40781016126753,92.6,4.21997382971007,92.6,3.89716153243457,92.6,4.45858555155528
92.67,4.31561192101285,92.67,4.38902223379094,92.67,4.2400228896798,92.67,3.87840509261411,92.67,4.40139973271231
92.79,4.27690709275562,92.79,4.40852909947683,92.79,4.16257956126187,92.79,3.83962091578433,92.79,4.44000852284482
92.92,4.29625936048466,92.92,4.40852909947683,92.92,4.18194032016656,92.92,3.83962091578433,92.92,4.42070398137898
93.02,4.29625936048466,93.02,4.40852909947683,93.02,4.20130137187041,93.02,3.87840509261411,93.02,4.44000852284482
93.11,4.27690709275562,93.11,4.33050192953241,93.11,4.20130137187041,93.11,3.8202291201686,93.11,4.38209519124648
93.23,4.25755453222743,93.23,4.38902223379094,93.23,4.18194032016656,93.23,3.8202291201686,93.23,4.42070398137898
93.34,4.19881200118907,93.34,4.3102920313834,93.34,4.16190073224013,93.34,3.838994754513,93.34,4.34277806999833
93.43,4.23820197169924,93.43,4.33050192953241,93.43,4.20130137187041,93.43,3.8202291201686,93.43,4.45931277151149
93.53,4.23751081025572,93.53,4.34929940043762,93.53,4.14254313066729,93.53,3.8002171953167,93.53,4.34277806999833
93.61,4.21816140572239,93.61,4.3102920313834,93.61,4.16190073224013,93.61,3.8002171953167,93.61,4.32347696944788
93.75,4.21816140572239,93.75,4.3102920313834,93.75,4.16190073224013,93.75,3.81960612129055,93.75,4.3620794633002
93.84,4.21816140572239,93.84,4.29078863960771,93.84,4.16190073224013,93.84,3.81960612129055,93.84,4.38138056385065
93.97,4.21747362463553,93.97,4.29008901648042,93.97,4.14186767931711,93.97,3.78021179644714,93.97,4.38066616949815
94.06,4.17946259665574,94.06,4.2712849550806,94.06,4.16190073224013,94.06,3.74205041739513,94.06,4.28487447559557
94.16,4.17946259665574,94.16,4.29078863960771,94.16,4.1038276347702,94.16,3.8002171953167,94.16,4.32347696944788
94.29,4.15943487593261,94.29,4.27058851207471,94.29,4.10315849607221,94.29,3.81898332557536,94.29,4.30347377024741
94.36,4.19881200118907,94.36,4.2712849550806,94.36,4.12318552909445,94.36,3.81960612129055,94.36,4.32347696944788
94.46,4.17878112550025,94.46,4.29008901648042,94.46,4.1225132340465,94.46,3.81898332557536,94.46,4.32277201641194
94.55,4.17878112550025,94.55,4.23158779596697,94.55,4.08380405080159,94.55,3.79959756101125,94.55,4.30347377024741
94.66,4.14008891906864,94.66,4.25108800766901,94.66,4.08380405080159,94.66,3.78021179644714,94.66,4.30347377024741
94.75,4.17878112550025,94.75,4.27058851207471,94.75,4.06444960553098,94.75,3.78021179644714,94.75,4.26487786332572

